# Time (s),Mass (g),T Back (K),T Front (K)
0,68.400,293.000,293.000
1,68.400,293.000,388.079
2,68.400,293.000,425.612
3,68.400,293.000,453.090
4,68.400,293.000,475.506
5,68.400,293.000,494.481
6,68.400,293.000,511.092
7,68.400,293.000,525.743
8,68.400,293.000,538.832
9,68.399,293.000,550.595
10,68.398,293.000,561.229
11,68.397,293.000,570.852
12,68.395,293.000,579.580
13,68.392,293.000,587.499
14,68.388,293.000,594.708
15,68.383,293.000,601.299
16,68.377,293.000,607.361
17,68.369,293.000,612.978
18,68.361,293.000,618.214
19,68.352,293.000,623.129
20,68.341,293.000,627.761
21,68.329,293.000,632.149
22,68.316,293.000,636.312
23,68.302,293.000,640.278
24,68.285,293.000,644.060
25,68.268,293.000,647.676
26,68.248,293.000,651.139
27,68.227,293.000,654.459
28,68.204,293.000,657.657
29,68.179,293.000,660.728
30,68.153,293.000,663.700
31,68.124,293.000,666.556
32,68.094,293.000,669.331
33,68.061,293.000,671.990
34,68.027,293.000,674.577
35,67.991,293.000,677.043
36,67.954,293.000,679.438
37,67.915,293.000,681.700
38,67.875,293.000,683.890
39,67.833,293.000,685.941
40,67.790,293.000,687.922
41,67.745,293.000,689.762
42,67.700,293.000,691.519
43,67.653,293.000,693.159
44,67.605,293.001,694.716
45,67.557,293.001,696.196
46,67.507,293.001,697.585
47,67.457,293.001,698.919
48,67.407,293.002,700.187
49,67.356,293.003,701.411
50,67.305,293.003,702.603
51,67.253,293.004,703.744
52,67.201,293.005,704.860
53,67.149,293.006,705.950
54,67.097,293.007,707.010
55,67.045,293.009,708.053
56,66.993,293.010,709.078
57,66.940,293.011,710.084
58,66.888,293.014,711.078
59,66.836,293.016,712.060
60,66.784,293.019,713.034
61,66.732,293.022,713.999
62,66.680,293.025,714.952
63,66.628,293.029,715.908
64,66.576,293.034,716.856
65,66.525,293.038,717.789
66,66.473,293.044,718.731
67,66.422,293.050,719.668
68,66.371,293.057,720.584
69,66.320,293.064,721.511
70,66.269,293.072,722.439
71,66.218,293.081,723.337
72,66.167,293.090,724.244
73,66.117,293.100,725.160
74,66.067,293.112,726.037
75,66.016,293.124,726.920
76,65.966,293.137,727.813
77,65.916,293.151,728.671
78,65.866,293.167,729.525
79,65.817,293.183,730.392
80,65.767,293.201,731.225
81,65.718,293.219,732.049
82,65.668,293.239,732.884
83,65.619,293.261,733.691
84,65.570,293.283,734.485
85,65.521,293.308,735.286
86,65.472,293.333,736.065
87,65.423,293.360,736.829
88,65.375,293.389,737.596
89,65.326,293.419,738.346
90,65.278,293.451,739.081
91,65.230,293.484,739.815
92,65.182,293.520,740.535
93,65.134,293.557,741.241
94,65.086,293.596,741.944
95,65.038,293.636,742.635
96,64.990,293.679,743.315
97,64.943,293.724,743.987
98,64.895,293.770,744.650
99,64.848,293.819,745.304
100,64.801,293.869,745.949
101,64.754,293.922,746.584
102,64.707,293.977,747.213
103,64.660,294.034,747.831
104,64.613,294.093,748.441
105,64.567,294.154,749.046
106,64.520,294.218,749.639
107,64.474,294.283,750.225
108,64.428,294.352,750.807
109,64.382,294.423,751.376
110,64.336,294.496,751.938
111,64.290,294.571,752.499
112,64.245,294.649,753.046
113,64.199,294.729,753.586
114,64.154,294.812,754.127
115,64.108,294.897,754.651
116,64.063,294.985,755.171
117,64.018,295.075,755.692
118,63.973,295.168,756.195
119,63.928,295.263,756.697
120,63.884,295.360,757.197
121,63.839,295.461,757.681
122,63.795,295.564,758.166
123,63.750,295.670,758.646
124,63.706,295.779,759.112
125,63.662,295.889,759.581
126,63.618,296.003,760.042
127,63.574,296.120,760.491
128,63.530,296.238,760.944
129,63.487,296.360,761.387
130,63.443,296.485,761.822
131,63.400,296.611,762.260
132,63.357,296.742,762.684
133,63.314,296.875,763.105
134,63.271,297.009,763.527
135,63.228,297.148,763.935
136,63.185,297.288,764.344
137,63.142,297.431,764.749
138,63.100,297.577,765.141
139,63.057,297.726,765.540
140,63.015,297.878,765.928
141,62.973,298.032,766.310
142,62.930,298.190,766.695
143,62.888,298.349,767.066
144,62.847,298.511,767.440
145,62.805,298.677,767.809
146,62.763,298.845,768.168
147,62.721,299.016,768.531
148,62.680,299.189,768.885
149,62.639,299.365,769.235
150,62.597,299.543,769.587
151,62.556,299.724,769.926
152,62.515,299.908,770.268
153,62.474,300.095,770.605
154,62.433,300.284,770.935
155,62.393,300.477,771.268
156,62.352,300.671,771.591
157,62.311,300.868,771.913
158,62.271,301.068,772.234
159,62.231,301.270,772.546
160,62.190,301.476,772.862
161,62.150,301.683,773.168
162,62.110,301.894,773.474
163,62.070,302.105,773.779
164,62.030,302.320,774.075
165,61.991,302.539,774.374
166,61.951,302.760,774.666
167,61.912,302.982,774.956
168,61.872,303.207,775.246
169,61.833,303.435,775.527
170,61.793,303.666,775.812
171,61.754,303.898,776.090
172,61.715,304.133,776.366
173,61.676,304.371,776.641
174,61.637,304.610,776.910
175,61.599,304.853,777.181
176,61.560,305.098,777.445
177,61.521,305.345,777.708
178,61.483,305.595,777.970
179,61.444,305.846,778.227
180,61.406,306.100,778.485
181,61.368,306.357,778.737
182,61.329,306.615,778.989
183,61.291,306.877,779.237
184,61.253,307.140,779.484
185,61.215,307.405,779.729
186,61.177,307.673,779.970
187,61.140,307.943,780.211
188,61.102,308.215,780.448
189,61.064,308.489,780.684
190,61.027,308.766,780.917
191,60.990,309.044,781.148
192,60.952,309.325,781.379
193,60.915,309.607,781.605
194,60.878,309.892,781.832
195,60.841,310.179,782.054
196,60.804,310.468,782.276
197,60.767,310.759,782.496
198,60.730,311.052,782.713
199,60.693,311.347,782.930
200,60.656,311.644,783.143
201,60.620,311.943,783.357
202,60.583,312.244,783.566
203,60.547,312.547,783.775
204,60.510,312.852,783.982
205,60.474,313.158,784.187
206,60.438,313.467,784.391
207,60.401,313.777,784.592
208,60.365,314.089,784.794
209,60.329,314.403,784.992
210,60.293,314.719,785.190
211,60.257,315.037,785.384
212,60.222,315.356,785.579
213,60.186,315.677,785.772
214,60.150,316.000,785.963
215,60.115,316.325,786.152
216,60.079,316.651,786.340
217,60.044,316.979,786.527
218,60.008,317.308,786.712
219,59.973,317.640,786.897
220,59.938,317.973,787.078
221,59.902,318.307,787.259
222,59.867,318.644,787.438
223,59.832,318.981,787.617
224,59.797,319.320,787.794
225,59.762,319.661,787.969
226,59.728,320.004,788.143
227,59.693,320.348,788.316
228,59.658,320.693,788.488
229,59.623,321.040,788.658
230,59.589,321.388,788.829
231,59.554,321.738,788.995
232,59.520,322.089,789.163
233,59.485,322.442,789.328
234,59.451,322.796,789.493
235,59.417,323.152,789.656
236,59.382,323.509,789.818
237,59.348,323.867,789.979
238,59.314,324.226,790.138
239,59.280,324.587,790.297
240,59.246,324.949,790.455
241,59.212,325.313,790.611
242,59.178,325.678,790.766
243,59.144,326.043,790.922
244,59.111,326.411,791.074
245,59.077,326.780,791.227
246,59.043,327.150,791.378
247,59.010,327.520,791.527
248,58.976,327.893,791.677
249,58.943,328.266,791.825
250,58.909,328.640,791.972
251,58.876,329.016,792.118
252,58.842,329.393,792.264
253,58.809,329.770,792.408
254,58.776,330.150,792.551
255,58.743,330.530,792.693
256,58.710,330.911,792.835
257,58.677,331.293,792.976
258,58.644,331.676,793.115
259,58.611,332.060,793.255
260,58.578,332.446,793.393
261,58.545,332.832,793.530
262,58.512,333.219,793.666
263,58.479,333.607,793.801
264,58.447,333.997,793.936
265,58.414,334.388,794.070
266,58.381,334.779,794.203
267,58.349,335.170,794.335
268,58.316,335.563,794.467
269,58.284,335.958,794.597
270,58.251,336.352,794.726
271,58.219,336.747,794.855
272,58.187,337.144,794.984
273,58.154,337.542,795.112
274,58.122,337.940,795.239
275,58.090,338.339,795.364
276,58.058,338.739,795.490
277,58.026,339.139,795.614
278,57.994,339.540,795.738
279,57.962,339.943,795.861
280,57.930,340.346,795.984
281,57.898,340.749,796.105
282,57.866,341.154,796.226
283,57.834,341.559,796.347
284,57.802,341.965,796.467
285,57.771,342.372,796.586
286,57.739,342.779,796.704
287,57.707,343.187,796.822
288,57.676,343.596,796.939
289,57.644,344.005,797.056
290,57.613,344.415,797.171
291,57.581,344.826,797.286
292,57.550,345.237,797.400
293,57.518,345.649,797.514
294,57.487,346.061,797.628
295,57.456,346.474,797.740
296,57.424,346.888,797.853
297,57.393,347.302,797.964
298,57.362,347.717,798.075
299,57.331,348.132,798.186
300,57.300,348.549,798.295
301,57.269,348.965,798.405
302,57.237,349.382,798.513
303,57.206,349.799,798.621
304,57.175,350.217,798.729
305,57.145,350.636,798.835
306,57.114,351.054,798.942
307,57.083,351.474,799.047
308,57.052,351.894,799.153
309,57.021,352.314,799.258
310,56.990,352.735,799.362
311,56.960,353.157,799.465
312,56.929,353.578,799.568
313,56.898,354.000,799.671
314,56.868,354.422,799.773
315,56.837,354.846,799.875
316,56.807,355.269,799.976
317,56.776,355.693,800.077
318,56.746,356.117,800.177
319,56.715,356.541,800.277
320,56.685,356.966,800.376
321,56.654,357.391,800.474
322,56.624,357.817,800.573
323,56.594,358.243,800.671
324,56.563,358.668,800.768
325,56.533,359.095,800.865
326,56.503,359.522,800.962
327,56.473,359.949,801.058
328,56.442,360.376,801.153
329,56.412,360.804,801.248
330,56.382,361.232,801.343
331,56.352,361.660,801.437
332,56.322,362.089,801.531
333,56.292,362.518,801.624
334,56.262,362.946,801.718
335,56.232,363.376,801.810
336,56.202,363.805,801.902
337,56.172,364.235,801.993
338,56.142,364.665,802.085
339,56.112,365.095,802.176
340,56.082,365.525,802.266
341,56.053,365.956,802.356
342,56.023,366.386,802.446
343,55.993,366.818,802.535
344,55.963,367.248,802.624
345,55.934,367.680,802.712
346,55.904,368.111,802.801
347,55.874,368.543,802.888
348,55.845,368.975,802.976
349,55.815,369.406,803.062
350,55.785,369.839,803.149
351,55.756,370.270,803.235
352,55.726,370.703,803.321
353,55.697,371.136,803.407
354,55.667,371.568,803.492
355,55.638,372.000,803.576
356,55.608,372.433,803.661
357,55.579,372.866,803.745
358,55.550,373.299,803.829
359,55.520,373.732,803.912
360,55.491,374.164,803.995
361,55.461,374.598,804.078
362,55.432,375.031,804.160
363,55.403,375.464,804.242
364,55.374,375.898,804.324
365,55.344,376.331,804.405
366,55.315,376.764,804.487
367,55.286,377.198,804.567
368,55.257,377.631,804.648
369,55.227,378.064,804.728
370,55.198,378.497,804.807
371,55.169,378.931,804.886
372,55.140,379.364,804.966
373,55.111,379.798,805.045
374,55.082,380.231,805.123
375,55.053,380.665,805.202
376,55.024,381.098,805.279
377,54.995,381.531,805.356
378,54.966,381.964,805.434
379,54.937,382.399,805.511
380,54.908,382.832,805.588
381,54.879,383.265,805.664
382,54.850,383.698,805.740
383,54.821,384.131,805.816
384,54.792,384.564,805.892
385,54.763,384.997,805.967
386,54.734,385.430,806.042
387,54.705,385.863,806.116
388,54.676,386.296,806.191
389,54.647,386.728,806.265
390,54.619,387.161,806.339
391,54.590,387.593,806.413
392,54.561,388.026,806.486
393,54.532,388.458,806.559
394,54.503,388.890,806.632
395,54.474,389.322,806.704
396,54.446,389.755,806.777
397,54.417,390.186,806.849
398,54.388,390.618,806.921
399,54.359,391.050,806.992
400,54.331,391.481,807.064
401,54.302,391.913,807.135
402,54.273,392.344,807.205
403,54.245,392.774,807.275
404,54.216,393.205,807.346
405,54.187,393.637,807.416
406,54.159,394.067,807.486
407,54.130,394.497,807.555
408,54.101,394.928,807.624
409,54.073,395.358,807.693
410,54.044,395.788,807.763
411,54.016,396.218,807.831
412,53.987,396.647,807.899
413,53.958,397.077,807.967
414,53.930,397.506,808.035
415,53.901,397.934,808.102
416,53.873,398.364,808.170
417,53.844,398.792,808.238
418,53.816,399.220,808.304
419,53.787,399.649,808.371
420,53.759,400.077,808.437
421,53.730,400.504,808.504
422,53.701,400.932,808.570
423,53.673,401.359,808.636
424,53.644,401.786,808.701
425,53.616,402.213,808.766
426,53.587,402.639,808.832
427,53.559,403.066,808.897
428,53.530,403.492,808.962
429,53.502,403.917,809.026
430,53.473,404.343,809.091
431,53.445,404.769,809.155
432,53.417,405.194,809.219
433,53.388,405.618,809.282
434,53.360,406.043,809.347
435,53.331,406.467,809.410
436,53.303,406.891,809.473
437,53.274,407.315,809.535
438,53.246,407.739,809.598
439,53.217,408.162,809.661
440,53.189,408.584,809.723
441,53.161,409.007,809.785
442,53.132,409.429,809.847
443,53.104,409.852,809.909
444,53.075,410.272,809.970
445,53.047,410.694,810.032
446,53.018,411.115,810.093
447,52.990,411.536,810.154
448,52.961,411.956,810.215
449,52.933,412.377,810.275
450,52.905,412.796,810.336
451,52.876,413.216,810.396
452,52.848,413.635,810.457
453,52.819,414.053,810.517
454,52.791,414.472,810.576
455,52.763,414.890,810.636
456,52.734,415.308,810.696
457,52.706,415.725,810.754
458,52.677,416.142,810.813
459,52.649,416.559,810.872
460,52.620,416.975,810.931
461,52.592,417.391,810.990
462,52.564,417.807,811.048
463,52.535,418.222,811.106
464,52.507,418.637,811.164
465,52.478,419.052,811.222
466,52.450,419.465,811.279
467,52.421,419.879,811.337
468,52.393,420.292,811.394
469,52.364,420.705,811.451
470,52.336,421.118,811.509
471,52.308,421.530,811.565
472,52.279,421.942,811.622
473,52.251,422.353,811.679
474,52.222,422.764,811.734
475,52.194,423.174,811.791
476,52.165,423.585,811.847
477,52.137,423.994,811.903
478,52.108,424.403,811.958
479,52.080,424.812,812.014
480,52.051,425.220,812.069
481,52.023,425.629,812.125
482,51.994,426.036,812.180
483,51.966,426.444,812.235
484,51.937,426.850,812.289
485,51.909,427.256,812.344
486,51.880,427.662,812.398
487,51.852,428.067,812.453
488,51.823,428.472,812.507
489,51.794,428.876,812.560
490,51.766,429.280,812.615
491,51.737,429.683,812.668
492,51.709,430.087,812.722
493,51.680,430.489,812.775
494,51.652,430.892,812.829
495,51.623,431.293,812.882
496,51.594,431.694,812.935
497,51.566,432.095,812.988
498,51.537,432.495,813.040
499,51.508,432.894,813.093
500,51.480,433.293,813.145
501,51.451,433.692,813.198
502,51.422,434.090,813.250
503,51.394,434.487,813.302
504,51.365,434.885,813.354
505,51.336,435.281,813.405
506,51.308,435.678,813.457
507,51.279,436.073,813.509
508,51.250,436.468,813.560
509,51.222,436.863,813.611
510,51.193,437.257,813.662
511,51.164,437.650,813.713
512,51.135,438.043,813.763
513,51.106,438.435,813.814
514,51.078,438.826,813.865
515,51.049,439.217,813.915
516,51.020,439.608,813.966
517,50.991,439.998,814.016
518,50.962,440.388,814.066
519,50.933,440.777,814.116
520,50.905,441.166,814.165
521,50.876,441.553,814.215
522,50.847,441.940,814.264
523,50.818,442.327,814.313
524,50.789,442.713,814.363
525,50.760,443.099,814.412
526,50.731,443.483,814.461
527,50.702,443.867,814.510
528,50.673,444.251,814.558
529,50.644,444.633,814.607
530,50.615,445.016,814.655
531,50.586,445.397,814.704
532,50.557,445.779,814.752
533,50.528,446.159,814.800
534,50.499,446.539,814.848
535,50.470,446.919,814.897
536,50.441,447.297,814.944
537,50.412,447.675,814.991
538,50.382,448.052,815.039
539,50.353,448.429,815.086
540,50.324,448.805,815.134
541,50.295,449.180,815.181
542,50.266,449.555,815.228
543,50.237,449.929,815.275
544,50.207,450.302,815.321
545,50.178,450.675,815.368
546,50.149,451.047,815.415
547,50.119,451.418,815.461
548,50.090,451.789,815.508
549,50.061,452.158,815.554
550,50.031,452.528,815.600
551,50.002,452.896,815.646
552,49.973,453.263,815.692
553,49.943,453.631,815.737
554,49.914,453.998,815.783
555,49.884,454.363,815.828
556,49.855,454.728,815.874
557,49.826,455.092,815.919
558,49.796,455.456,815.965
559,49.767,455.818,816.010
560,49.737,456.181,816.055
561,49.707,456.541,816.100
562,49.678,456.902,816.145
563,49.648,457.262,816.189
564,49.619,457.621,816.234
565,49.589,457.980,816.278
566,49.559,458.336,816.323
567,49.530,458.693,816.367
568,49.500,459.049,816.411
569,49.470,459.404,816.455
570,49.440,459.759,816.499
571,49.411,460.112,816.543
572,49.381,460.465,816.587
573,49.351,460.816,816.630
574,49.321,461.168,816.674
575,49.291,461.518,816.718
576,49.262,461.868,816.761
577,49.232,462.217,816.804
578,49.202,462.564,816.847
579,49.172,462.912,816.890
580,49.142,463.259,816.933
581,49.112,463.604,816.976
582,49.082,463.948,817.018
583,49.052,464.293,817.061
584,49.022,464.635,817.104
585,48.992,464.977,817.146
586,48.961,465.318,817.188
587,48.931,465.660,817.230
588,48.901,465.999,817.272
589,48.871,466.337,817.314
590,48.841,466.675,817.356
591,48.811,467.013,817.398
592,48.780,467.349,817.441
593,48.750,467.684,817.482
594,48.720,468.018,817.524
595,48.689,468.352,817.565
596,48.659,468.685,817.607
597,48.629,469.017,817.648
598,48.598,469.347,817.688
599,48.568,469.678,817.730
600,48.537,470.007,817.771
601,48.507,470.335,817.812
602,48.476,470.663,817.853
603,48.446,470.989,817.893
604,48.415,471.314,817.934
605,48.385,471.639,817.975
606,48.354,471.963,818.015
607,48.323,472.287,818.056
608,48.293,472.608,818.095
609,48.262,472.929,818.136
610,48.231,473.250,818.176
611,48.201,473.569,818.216
612,48.170,473.887,818.255
613,48.139,474.205,818.296
614,48.108,474.521,818.335
615,48.077,474.837,818.375
616,48.047,475.151,818.414
617,48.016,475.465,818.454
618,47.985,475.778,818.493
619,47.954,476.090,818.533
620,47.923,476.401,818.572
621,47.892,476.711,818.611
622,47.861,477.020,818.650
623,47.830,477.328,818.689
624,47.799,477.635,818.728
625,47.768,477.942,818.767
626,47.736,478.247,818.806
627,47.705,478.552,818.845
628,47.674,478.856,818.883
629,47.643,479.158,818.921
630,47.612,479.460,818.959
631,47.580,479.761,818.998
632,47.549,480.061,819.037
633,47.518,480.360,819.074
634,47.486,480.658,819.113
635,47.455,480.955,819.151
636,47.424,481.252,819.188
637,47.392,481.546,819.226
638,47.361,481.841,819.264
639,47.329,482.134,819.302
640,47.298,482.427,819.339
641,47.266,482.718,819.377
642,47.235,483.009,819.414
643,47.203,483.299,819.451
644,47.171,483.588,819.489
645,47.140,483.877,819.526
646,47.108,484.163,819.563
647,47.076,484.450,819.600
648,47.045,484.735,819.638
649,47.013,485.019,819.674
650,46.981,485.303,819.711
651,46.949,485.585,819.748
652,46.917,485.867,819.785
653,46.885,486.148,819.821
654,46.854,486.428,819.858
655,46.822,486.707,819.895
656,46.790,486.986,819.931
657,46.758,487.263,819.967
658,46.726,487.540,820.004
659,46.694,487.815,820.040
660,46.662,488.091,820.076
661,46.630,488.364,820.112
662,46.598,488.637,820.148
663,46.565,488.910,820.184
664,46.533,489.181,820.220
665,46.501,489.451,820.256
666,46.469,489.722,820.291
667,46.437,489.991,820.327
668,46.404,490.259,820.363
669,46.372,490.526,820.398
670,46.340,490.792,820.434
671,46.307,491.058,820.469
672,46.275,491.323,820.504
673,46.243,491.588,820.540
674,46.210,491.851,820.575
675,46.178,492.114,820.610
676,46.145,492.376,820.645
677,46.113,492.637,820.680
678,46.080,492.897,820.715
679,46.048,493.157,820.750
680,46.015,493.416,820.785
681,45.983,493.675,820.819
682,45.950,493.932,820.854
683,45.917,494.189,820.889
684,45.885,494.445,820.923
685,45.852,494.700,820.958
686,45.819,494.955,820.992
687,45.787,495.209,821.027
688,45.754,495.462,821.061
689,45.721,495.715,821.095
690,45.688,495.967,821.130
691,45.655,496.219,821.164
692,45.623,496.469,821.198
693,45.590,496.719,821.232
694,45.557,496.968,821.266
695,45.524,497.217,821.300
696,45.491,497.465,821.334
697,45.458,497.712,821.367
698,45.425,497.959,821.401
699,45.392,498.206,821.435
700,45.359,498.452,821.468
701,45.326,498.697,821.502
702,45.293,498.942,821.535
703,45.260,499.185,821.569
704,45.227,499.429,821.602
705,45.193,499.672,821.636
706,45.160,499.914,821.669
707,45.127,500.156,821.702
708,45.094,500.397,821.735
709,45.061,500.638,821.768
710,45.027,500.878,821.801
711,44.994,501.118,821.834
712,44.961,501.358,821.867
713,44.927,501.597,821.900
714,44.894,501.835,821.933
715,44.861,502.073,821.966
716,44.827,502.311,821.998
717,44.794,502.547,822.031
718,44.761,502.785,822.063
719,44.727,503.021,822.096
720,44.694,503.256,822.129
721,44.660,503.492,822.161
722,44.627,503.727,822.194
723,44.593,503.961,822.225
724,44.560,504.196,822.258
725,44.526,504.429,822.290
726,44.492,504.662,822.322
727,44.459,504.895,822.355
728,44.425,505.128,822.387
729,44.391,505.361,822.419
730,44.358,505.592,822.450
731,44.324,505.824,822.483
732,44.290,506.056,822.515
733,44.257,506.286,822.546
734,44.223,506.518,822.578
735,44.189,506.748,822.610
736,44.155,506.978,822.641
737,44.122,507.207,822.673
738,44.088,507.438,822.705
739,44.054,507.667,822.736
740,44.020,507.895,822.767
741,43.986,508.125,822.799
742,43.952,508.353,822.830
