# Time (s),Mass (g),T Back (K),T Front (K)
0,22.800,293.000,293.000
1,22.800,293.000,388.079
2,22.800,293.000,425.612
3,22.800,293.000,453.090
4,22.800,293.000,475.506
5,22.800,293.002,494.481
6,22.800,293.008,511.092
7,22.800,293.023,525.743
8,22.800,293.055,538.832
9,22.799,293.117,550.595
10,22.798,293.220,561.229
11,22.797,293.381,570.852
12,22.795,293.615,579.580
13,22.792,293.937,587.499
14,22.788,294.359,594.708
15,22.783,294.893,601.299
16,22.777,295.546,607.362
17,22.769,296.325,612.978
18,22.761,297.234,618.214
19,22.752,298.276,623.130
20,22.741,299.449,627.762
21,22.729,300.752,632.150
22,22.716,302.183,636.315
23,22.702,303.738,640.282
24,22.685,305.413,644.065
25,22.668,307.202,647.682
26,22.648,309.100,651.148
27,22.627,311.102,654.471
28,22.604,313.201,657.673
29,22.579,315.392,660.749
30,22.553,317.668,663.729
31,22.524,320.024,666.593
32,22.493,322.454,669.377
33,22.461,324.954,672.048
34,22.427,327.516,674.649
35,22.391,330.136,677.129
36,22.353,332.811,679.543
37,22.314,335.534,681.826
38,22.274,338.301,684.039
39,22.232,341.109,686.116
40,22.188,343.953,688.125
41,22.143,346.830,689.993
42,22.097,349.736,691.781
43,22.050,352.668,693.456
44,22.001,355.623,695.048
45,21.952,358.598,696.571
46,21.902,361.590,697.998
47,21.851,364.598,699.376
48,21.799,367.618,700.694
49,21.747,370.646,701.969
50,21.694,373.684,703.215
51,21.641,376.726,704.420
52,21.587,379.772,705.595
53,21.533,382.819,706.751
54,21.479,385.867,707.882
55,21.424,388.913,708.995
56,21.370,391.955,710.095
57,21.315,394.992,711.182
58,21.259,398.022,712.259
59,21.204,401.046,713.330
60,21.148,404.059,714.393
61,21.092,407.063,715.451
62,21.036,410.055,716.511
63,20.980,413.035,717.566
64,20.924,416.002,718.613
65,20.867,418.954,719.663
66,20.811,421.891,720.720
67,20.754,424.812,721.774
68,20.697,427.716,722.813
69,20.640,430.604,723.851
70,20.582,433.472,724.905
71,20.525,436.323,725.957
72,20.467,439.153,726.991
73,20.409,441.964,728.018
74,20.350,444.755,729.042
75,20.292,447.524,730.076
76,20.233,450.272,731.103
77,20.173,452.999,732.116
78,20.114,455.701,733.115
79,20.054,458.381,734.107
80,19.994,461.039,735.093
81,19.933,463.670,736.079
82,19.872,466.277,737.055
83,19.810,468.860,738.020
84,19.749,471.417,738.977
85,19.687,473.946,739.918
86,19.624,476.448,740.851
87,19.561,478.923,741.775
88,19.497,481.369,742.690
89,19.434,483.787,743.596
90,19.369,486.174,744.493
91,19.304,488.531,745.380
92,19.239,490.857,746.257
93,19.173,493.151,747.126
94,19.107,495.412,747.983
95,19.041,497.640,748.832
96,18.973,499.835,749.672
97,18.906,501.995,750.502
98,18.837,504.121,751.323
99,18.769,506.211,752.134
100,18.700,508.268,752.938
101,18.630,510.289,753.731
102,18.560,512.273,754.516
103,18.489,514.223,755.294
104,18.418,516.136,756.064
105,18.346,518.016,756.826
106,18.274,519.862,757.580
107,18.201,521.673,758.323
108,18.128,523.453,759.058
109,18.054,525.201,759.786
110,17.980,526.918,760.509
111,17.906,528.606,761.225
112,17.830,530.267,761.931
113,17.755,531.900,762.628
114,17.679,533.510,763.319
115,17.603,535.095,764.007
116,17.526,536.660,764.684
117,17.449,538.203,765.353
118,17.371,539.730,766.018
119,17.293,541.239,766.677
120,17.215,542.733,767.326
121,17.136,544.215,767.968
122,17.057,545.685,768.609
123,16.978,547.142,769.237
124,16.898,548.592,769.860
125,16.818,550.035,770.481
126,16.738,551.469,771.091
127,16.657,552.900,771.696
128,16.576,554.324,772.297
129,16.495,555.746,772.888
130,16.413,557.164,773.476
131,16.331,558.581,774.056
132,16.249,559.996,774.632
133,16.166,561.410,775.202
134,16.083,562.823,775.763
135,15.999,564.235,776.323
136,15.915,565.648,776.874
137,15.831,567.060,777.422
138,15.747,568.472,777.962
139,15.661,569.883,778.498
140,15.576,571.297,779.028
141,15.490,572.709,779.554
142,15.404,574.121,780.074
143,15.317,575.532,780.589
144,15.229,576.943,781.099
145,15.142,578.354,781.605
146,15.053,579.762,782.104
147,14.964,581.170,782.601
148,14.875,582.576,783.091
149,14.785,583.979,783.578
150,14.694,585.379,784.060
151,14.603,586.777,784.537
152,14.511,588.170,785.012
153,14.419,589.560,785.480
154,14.326,590.944,785.946
155,14.232,592.324,786.407
156,14.138,593.699,786.864
157,14.043,595.066,787.316
158,13.947,596.428,787.766
159,13.851,597.781,788.212
160,13.754,599.127,788.655
161,13.656,600.465,789.094
162,13.558,601.794,789.530
163,13.459,603.113,789.962
164,13.360,604.423,790.392
165,13.259,605.721,790.818
166,13.159,607.008,791.241
167,13.057,608.284,791.663
168,12.956,609.548,792.080
169,12.853,610.800,792.496
170,12.750,612.037,792.908
171,12.647,613.263,793.319
172,12.543,614.473,793.728
173,12.439,615.669,794.134
174,12.335,616.850,794.538
175,12.230,618.016,794.939
176,12.126,619.166,795.339
177,12.021,620.299,795.737
178,11.915,621.417,796.133
179,11.810,622.518,796.527
180,11.705,623.602,796.920
181,11.600,624.668,797.311
182,11.494,625.717,797.700
183,11.389,626.748,798.087
184,11.285,627.762,798.473
185,11.180,628.758,798.857
186,11.076,629.736,799.239
187,10.972,630.697,799.620
188,10.868,631.640,799.999
189,10.765,632.567,800.376
190,10.663,633.476,800.752
191,10.560,634.369,801.126
192,10.459,635.244,801.497
193,10.358,636.105,801.867
194,10.257,636.950,802.235
195,10.158,637.780,802.601
196,10.058,638.597,802.965
197,9.960,639.399,803.327
198,9.862,640.189,803.687
199,9.765,640.967,804.045
200,9.669,641.735,804.401
201,9.574,642.492,804.754
202,9.479,643.240,805.106
203,9.385,643.980,805.455
204,9.292,644.712,805.803
205,9.200,645.437,806.149
206,9.108,646.157,806.491
207,9.017,646.873,806.833
208,8.927,647.585,807.172
209,8.838,648.294,807.511
210,8.750,649.002,807.846
211,8.662,649.709,808.180
212,8.576,650.416,808.513
213,8.490,651.124,808.842
214,8.405,651.833,809.172
215,8.320,652.546,809.500
216,8.237,653.262,809.825
217,8.154,653.982,810.150
218,8.072,654.708,810.473
219,7.991,655.440,810.795
220,7.910,656.178,811.116
221,7.830,656.925,811.436
222,7.752,657.680,811.755
223,7.673,658.444,812.074
224,7.596,659.218,812.392
225,7.519,660.003,812.709
226,7.443,660.801,813.026
227,7.368,661.610,813.343
228,7.293,662.433,813.659
229,7.220,663.271,813.976
230,7.146,664.125,814.292
231,7.074,664.995,814.609
232,7.003,665.882,814.926
233,6.932,666.787,815.244
234,6.862,667.713,815.562
235,6.792,668.659,815.882
236,6.724,669.627,816.202
237,6.656,670.619,816.524
238,6.589,671.637,816.847
239,6.523,672.680,817.172
240,6.457,673.750,817.498
241,6.393,674.852,817.827
242,6.329,675.984,818.157
243,6.266,677.150,818.490
244,6.204,678.350,818.825
245,6.143,679.587,819.163
246,6.083,680.866,819.506
247,6.024,682.187,819.850
248,5.966,683.553,820.199
249,5.909,684.964,820.552
250,5.853,686.428,820.909
251,5.798,687.943,821.270
252,5.744,689.516,821.636
253,5.691,691.148,822.008
254,5.640,692.844,822.384
255,5.590,694.608,822.766
256,5.542,696.442,823.155
257,5.494,698.349,823.550
258,5.449,700.332,823.950
259,5.405,702.399,824.360
260,5.362,704.556,824.777
261,5.321,706.797,825.201
262,5.283,709.126,825.633
263,5.245,711.548,826.073
264,5.210,714.063,826.525
265,5.177,716.662,826.982
266,5.145,719.360,827.451
267,5.116,722.124,827.926
268,5.088,724.964,828.411
269,5.062,727.878,828.906
270,5.039,730.852,829.405
271,5.017,733.887,829.918
272,4.996,736.951,830.432
273,4.977,740.031,830.958
274,4.960,743.095,831.488
275,4.943,746.121,832.023
276,4.928,749.081,832.564
277,4.913,751.960,833.102
278,4.898,754.726,833.647
279,4.884,757.386,834.185
280,4.870,759.938,834.721
281,4.856,762.382,835.249
282,4.843,764.733,835.768
283,4.829,767.007,836.280
284,4.816,769.204,836.772
285,4.802,771.331,837.258
286,4.789,773.400,837.727
287,4.777,775.415,838.185
288,4.764,777.379,838.631
289,4.751,779.296,839.062
290,4.739,781.169,839.486
291,4.727,782.997,839.893
292,4.715,784.785,840.292
293,4.704,786.537,840.681
294,4.693,788.254,841.061
295,4.681,789.937,841.432
296,4.671,791.584,841.792
297,4.660,793.199,842.146
298,4.650,794.781,842.491
299,4.640,796.334,842.828
300,4.630,797.858,843.159
301,4.620,799.353,843.482
302,4.611,800.817,843.799
303,4.601,802.253,844.108
304,4.592,803.661,844.412
305,4.584,805.041,844.708
306,4.575,806.395,844.999
307,4.567,807.723,845.285
308,4.559,809.019,845.562
309,4.551,810.290,845.835
310,4.543,811.534,846.102
311,4.536,812.753,846.362
312,4.528,813.946,846.618
313,4.521,815.111,846.867
314,4.514,816.249,847.111
315,4.507,817.361,847.350
316,4.501,818.449,847.583
317,4.494,819.510,847.811
318,4.488,820.547,848.033
319,4.482,821.556,848.251
320,4.476,822.541,848.463
321,4.470,823.501,848.669
322,4.464,824.437,848.870
323,4.459,825.349,849.067
324,4.453,826.234,849.258
325,4.448,827.097,849.445
326,4.443,827.936,849.626
327,4.438,828.753,849.803
328,4.433,829.547,849.974
329,4.428,830.318,850.142
330,4.423,831.067,850.304
331,4.419,831.793,850.462
332,4.414,832.500,850.616
333,4.410,833.186,850.765
334,4.405,833.850,850.909
335,4.401,834.494,851.050
336,4.397,835.119,851.187
337,4.393,835.726,851.319
338,4.389,836.314,851.447
339,4.385,836.882,851.572
340,4.381,837.432,851.692
341,4.378,837.966,851.809
342,4.374,838.483,851.922
343,4.370,838.984,852.033
344,4.367,839.468,852.139
345,4.363,839.936,852.242
346,4.360,840.389,852.342
347,4.357,840.828,852.438
348,4.354,841.252,852.531
349,4.350,841.662,852.622
350,4.347,842.059,852.709
351,4.344,842.442,852.794
352,4.341,842.813,852.876
353,4.338,843.172,852.955
354,4.335,843.518,853.031
355,4.332,843.853,853.106
356,4.330,844.177,853.177
357,4.327,844.490,853.247
358,4.324,844.793,853.314
359,4.322,845.085,853.379
360,4.319,845.368,853.441
361,4.316,845.641,853.502
362,4.314,845.905,853.561
363,4.311,846.160,853.617
364,4.309,846.406,853.671
365,4.306,846.644,853.724
366,4.304,846.874,853.776
367,4.302,847.097,853.825
368,4.299,847.312,853.873
369,4.297,847.519,853.920
370,4.295,847.721,853.964
371,4.293,847.915,854.007
372,4.290,848.103,854.049
373,4.288,848.284,854.090
374,4.286,848.460,854.129
375,4.284,848.630,854.167
376,4.282,848.795,854.203
377,4.280,848.953,854.239
378,4.278,849.106,854.273
379,4.276,849.255,854.307
380,4.274,849.399,854.338
381,4.272,849.538,854.370
382,4.270,849.672,854.400
383,4.269,849.803,854.429
384,4.267,849.929,854.457
385,4.265,850.051,854.484
386,4.263,850.170,854.511
387,4.261,850.284,854.537
388,4.260,850.395,854.561
389,4.258,850.503,854.585
390,4.256,850.607,854.609
391,4.254,850.707,854.632
392,4.253,850.805,854.653
393,4.251,850.900,854.674
394,4.250,850.992,854.695
395,4.248,851.081,854.715
396,4.246,851.168,854.735
397,4.245,851.252,854.753
398,4.243,851.333,854.772
399,4.242,851.412,854.790
400,4.240,851.488,854.806
401,4.239,851.563,854.824
402,4.237,851.635,854.840
403,4.236,851.705,854.856
404,4.234,851.774,854.871
405,4.233,851.840,854.886
406,4.231,851.904,854.900
407,4.230,851.967,854.915
408,4.229,852.028,854.929
409,4.227,852.087,854.941
410,4.226,852.144,854.955
411,4.225,852.201,854.967
412,4.223,852.255,854.980
413,4.222,852.308,854.991
414,4.221,852.360,855.004
415,4.219,852.410,855.015
416,4.218,852.459,855.026
417,4.217,852.507,855.037
418,4.216,852.554,855.047
419,4.214,852.598,855.057
420,4.213,852.643,855.067
421,4.212,852.686,855.077
422,4.211,852.728,855.086
423,4.210,852.769,855.096
424,4.208,852.809,855.105
425,4.207,852.848,855.114
426,4.206,852.886,855.122
427,4.205,852.923,855.131
428,4.204,852.960,855.139
429,4.203,852.995,855.147
430,4.202,853.029,855.155
431,4.200,853.063,855.163
432,4.199,853.096,855.170
433,4.198,853.129,855.177
434,4.197,853.161,855.184
435,4.196,853.191,855.192
436,4.195,853.222,855.199
437,4.194,853.251,855.205
438,4.193,853.280,855.212
439,4.192,853.309,855.219
440,4.191,853.336,855.225
441,4.190,853.363,855.231
442,4.189,853.389,855.237
443,4.188,853.416,855.243
444,4.187,853.441,855.249
445,4.186,853.466,855.254
446,4.185,853.491,855.260
447,4.184,853.515,855.266
448,4.183,853.538,855.271
449,4.182,853.561,855.276
450,4.181,853.583,855.282
451,4.180,853.606,855.286
452,4.179,853.627,855.291
453,4.178,853.649,855.296
454,4.178,853.670,855.301
455,4.177,853.690,855.306
456,4.176,853.710,855.311
457,4.175,853.730,855.315
458,4.174,853.750,855.319
459,4.173,853.768,855.324
460,4.172,853.787,855.328
461,4.171,853.806,855.332
462,4.170,853.824,855.336
463,4.170,853.842,855.341
464,4.169,853.859,855.345
465,4.168,853.876,855.349
466,4.167,853.894,855.352
467,4.166,853.910,855.356
468,4.165,853.926,855.360
469,4.165,853.942,855.364
470,4.164,853.958,855.368
471,4.163,853.974,855.371
472,4.162,853.989,855.375
473,4.161,854.004,855.378
474,4.161,854.019,855.382
475,4.160,854.033,855.385
476,4.159,854.047,855.388
477,4.158,854.062,855.392
478,4.158,854.076,855.395
479,4.157,854.090,855.398
480,4.156,854.103,855.401
481,4.155,854.116,855.404
482,4.155,854.130,855.407
483,4.154,854.142,855.410
484,4.153,854.155,855.413
485,4.152,854.168,855.416
486,4.152,854.180,855.419
487,4.151,854.192,855.421
488,4.150,854.205,855.425
489,4.149,854.216,855.427
490,4.149,854.228,855.430
491,4.148,854.239,855.433
492,4.147,854.250,855.435
493,4.147,854.262,855.438
494,4.146,854.273,855.440
495,4.145,854.284,855.443
496,4.145,854.294,855.445
497,4.144,854.305,855.448
498,4.143,854.315,855.450
499,4.143,854.326,855.453
500,4.142,854.336,855.455
501,4.141,854.346,855.458
502,4.141,854.356,855.460
503,4.140,854.366,855.462
504,4.139,854.376,855.465
505,4.139,854.385,855.467
506,4.138,854.395,855.469
507,4.137,854.404,855.471
508,4.137,854.413,855.473
509,4.136,854.422,855.475
510,4.135,854.432,855.478
511,4.135,854.440,855.479
512,4.134,854.449,855.482
513,4.134,854.458,855.484
514,4.133,854.466,855.486
515,4.132,854.474,855.488
516,4.132,854.483,855.490
517,4.131,854.491,855.492
518,4.130,854.499,855.493
519,4.130,854.508,855.495
520,4.129,854.515,855.497
521,4.129,854.523,855.499
522,4.128,854.531,855.501
523,4.127,854.538,855.503
524,4.127,854.546,855.505
525,4.126,854.554,855.506
526,4.126,854.561,855.508
527,4.125,854.569,855.510
528,4.125,854.576,855.512
529,4.124,854.583,855.513
530,4.123,854.590,855.515
531,4.123,854.598,855.517
532,4.122,854.604,855.518
533,4.122,854.611,855.520
534,4.121,854.618,855.522
535,4.121,854.625,855.523
536,4.120,854.631,855.524
537,4.120,854.639,855.527
538,4.119,854.645,855.528
539,4.119,854.651,855.529
540,4.118,854.658,855.531
541,4.117,854.664,855.533
542,4.117,854.671,855.534
543,4.116,854.677,855.535
544,4.116,854.682,855.536
545,4.115,854.689,855.538
546,4.115,854.695,855.540
547,4.114,854.701,855.541
548,4.114,854.707,855.543
549,4.113,854.713,855.544
550,4.113,854.718,855.545
551,4.112,854.724,855.546
552,4.112,854.730,855.548
553,4.111,854.735,855.549
554,4.111,854.741,855.550
555,4.110,854.747,855.552
556,4.110,854.752,855.553
557,4.109,854.757,855.554
558,4.109,854.763,855.556
559,4.108,854.768,855.557
560,4.108,854.773,855.558
561,4.107,854.778,855.559
562,4.107,854.784,855.561
563,4.106,854.789,855.562
564,4.106,854.794,855.563
565,4.105,854.799,855.565
566,4.105,854.804,855.566
567,4.104,854.808,855.566
568,4.104,854.814,855.567
569,4.103,854.819,855.569
570,4.103,854.823,855.570
571,4.103,854.828,855.571
572,4.102,854.833,855.573
573,4.102,854.837,855.574
574,4.101,854.842,855.574
575,4.101,854.847,855.575
576,4.100,854.851,855.577
577,4.100,854.856,855.578
578,4.099,854.860,855.579
579,4.099,854.865,855.580
580,4.098,854.869,855.581
581,4.098,854.874,855.582
582,4.098,854.877,855.583
583,4.097,854.882,855.584
584,4.097,854.886,855.585
585,4.096,854.890,855.586
586,4.096,854.895,855.587
587,4.095,854.899,855.588
588,4.095,854.903,855.589
589,4.095,854.907,855.590
590,4.094,854.911,855.591
591,4.094,854.915,855.592
592,4.093,854.919,855.593
593,4.093,854.923,855.594
594,4.092,854.927,855.595
595,4.092,854.931,855.595
596,4.092,854.935,855.597
597,4.091,854.939,855.598
598,4.091,854.943,855.598
599,4.090,854.946,855.599
600,4.090,854.949,855.600
601,4.089,854.953,855.601
602,4.089,854.957,855.602
603,4.089,854.961,855.603
604,4.088,854.964,855.604
605,4.088,854.968,855.604
606,4.087,854.972,855.606
607,4.087,854.975,855.606
608,4.087,854.979,855.607
609,4.086,854.982,855.608
610,4.086,854.985,855.609
611,4.085,854.989,855.610
612,4.085,854.992,855.610
613,4.085,854.995,855.611
614,4.084,854.999,855.612
615,4.084,855.002,855.613
616,4.084,855.006,855.614
617,4.083,855.009,855.614
618,4.083,855.012,855.615
619,4.082,855.015,855.616
620,4.082,855.018,855.617
621,4.082,855.021,855.617
622,4.081,855.025,855.618
623,4.081,855.028,855.619
624,4.081,855.031,855.620
625,4.080,855.034,855.620
626,4.080,855.037,855.621
627,4.079,855.040,855.622
628,4.079,855.043,855.623
629,4.079,855.046,855.623
630,4.078,855.049,855.624
631,4.078,855.052,855.625
632,4.078,855.055,855.625
633,4.077,855.057,855.626
634,4.077,855.061,855.627
635,4.076,855.064,855.627
636,4.076,855.066,855.628
637,4.076,855.069,855.629
638,4.075,855.072,855.629
639,4.075,855.075,855.630
640,4.075,855.078,855.631
641,4.074,855.080,855.632
642,4.074,855.083,855.632
643,4.074,855.085,855.633
644,4.073,855.088,855.634
645,4.073,855.091,855.634
646,4.073,855.093,855.635
647,4.072,855.096,855.635
648,4.072,855.099,855.636
649,4.072,855.101,855.637
650,4.071,855.104,855.637
651,4.071,855.106,855.638
652,4.071,855.109,855.638
653,4.070,855.112,855.639
654,4.070,855.114,855.640
655,4.070,855.117,855.640
656,4.069,855.119,855.641
657,4.069,855.122,855.642
658,4.069,855.124,855.642
659,4.068,855.126,855.643
660,4.068,855.129,855.643
661,4.068,855.132,855.644
662,4.067,855.134,855.645
663,4.067,855.136,855.645
664,4.067,855.138,855.646
665,4.066,855.141,855.646
666,4.066,855.144,855.647
667,4.066,855.145,855.647
668,4.065,855.148,855.648
669,4.065,855.150,855.649
670,4.065,855.152,855.649
671,4.064,855.155,855.649
672,4.064,855.157,855.650
673,4.064,855.159,855.651
674,4.063,855.162,855.651
675,4.063,855.164,855.652
676,4.063,855.166,855.652
677,4.062,855.168,855.653
678,4.062,855.170,855.654
679,4.062,855.172,855.654
680,4.061,855.174,855.654
681,4.061,855.176,855.655
682,4.061,855.179,855.655
683,4.061,855.181,855.656
684,4.060,855.183,855.656
685,4.060,855.185,855.657
686,4.060,855.187,855.657
687,4.059,855.189,855.658
688,4.059,855.191,855.658
689,4.059,855.193,855.659
690,4.058,855.195,855.659
691,4.058,855.197,855.660
692,4.058,855.199,855.660
693,4.058,855.201,855.661
694,4.057,855.203,855.661
695,4.057,855.205,855.662
696,4.057,855.206,855.662
697,4.056,855.208,855.663
698,4.056,855.211,855.663
699,4.056,855.212,855.664
700,4.055,855.214,855.664
701,4.055,855.216,855.665
702,4.055,855.218,855.665
703,4.055,855.220,855.665
704,4.054,855.222,855.666
705,4.054,855.224,855.666
706,4.054,855.225,855.667
707,4.053,855.227,855.667
708,4.053,855.229,855.668
709,4.053,855.231,855.668
710,4.053,855.233,855.669
711,4.052,855.235,855.669
712,4.052,855.236,855.669
713,4.052,855.238,855.670
714,4.052,855.240,855.670
715,4.051,855.241,855.671
716,4.051,855.243,855.671
717,4.051,855.245,855.672
718,4.050,855.246,855.672
719,4.050,855.248,855.672
720,4.050,855.250,855.673
721,4.050,855.252,855.673
722,4.049,855.253,855.673
723,4.049,855.255,855.674
724,4.049,855.257,855.674
725,4.048,855.258,855.675
726,4.048,855.260,855.675
727,4.048,855.262,855.676
728,4.048,855.263,855.676
729,4.047,855.265,855.676
730,4.047,855.266,855.677
731,4.047,855.268,855.677
732,4.047,855.270,855.678
733,4.046,855.271,855.678
734,4.046,855.272,855.678
735,4.046,855.275,855.679
736,4.046,855.276,855.679
737,4.045,855.277,855.679
738,4.045,855.279,855.680
739,4.045,855.281,855.680
740,4.045,855.282,855.680
741,4.044,855.283,855.681
742,4.044,855.285,855.681
743,4.044,855.286,855.682
744,4.043,855.287,855.682
745,4.043,855.290,855.682
746,4.043,855.291,855.683
747,4.043,855.292,855.683
748,4.042,855.294,855.683
749,4.042,855.295,855.684
750,4.042,855.296,855.684
751,4.042,855.298,855.685
752,4.041,855.299,855.685
753,4.041,855.301,855.685
754,4.041,855.303,855.686
755,4.041,855.304,855.686
756,4.040,855.305,855.686
757,4.040,855.307,855.687
758,4.040,855.308,855.687
759,4.040,855.309,855.687
760,4.039,855.311,855.688
761,4.039,855.312,855.688
762,4.039,855.313,855.688
763,4.039,855.315,855.689
