# Time (s),Mass (g),T Back (K),T Front (K)
0,22.800,293.000,293.000
1,22.800,293.000,476.585
2,22.800,293.000,546.275
3,22.799,293.000,594.821
4,22.796,293.000,632.140
5,22.788,293.006,661.500
6,22.774,293.023,685.466
7,22.750,293.065,704.657
8,22.712,293.154,720.189
9,22.655,293.312,732.025
10,22.566,293.566,739.663
11,22.442,293.958,744.220
12,22.303,294.520,748.393
13,22.154,295.282,752.198
14,22.001,296.267,755.916
15,21.844,297.489,759.728
16,21.688,298.961,763.817
17,21.532,300.685,768.155
18,21.377,302.661,772.598
19,21.221,304.886,777.077
20,21.064,307.353,781.356
21,20.908,310.052,785.484
22,20.751,312.975,789.477
23,20.595,316.112,793.300
24,20.440,319.449,796.940
25,20.286,322.976,800.441
26,20.133,326.684,803.797
27,19.982,330.561,807.036
28,19.830,334.597,810.233
29,19.680,338.782,813.283
30,19.530,343.109,816.236
31,19.381,347.566,819.097
32,19.233,352.147,821.869
33,19.085,356.844,824.555
34,18.938,361.649,827.156
35,18.792,366.554,829.680
36,18.646,371.554,832.125
37,18.501,376.642,834.499
38,18.356,381.811,836.804
39,18.212,387.056,839.045
40,18.068,392.370,841.226
41,17.925,397.750,843.346
42,17.781,403.188,845.411
43,17.638,408.681,847.423
44,17.495,414.223,849.383
45,17.352,419.810,851.298
46,17.210,425.435,853.167
47,17.066,431.095,854.991
48,16.923,436.784,856.774
49,16.780,442.498,858.516
50,16.636,448.231,860.220
51,16.491,453.978,861.886
52,16.346,459.733,863.517
53,16.201,465.493,865.114
54,16.054,471.249,866.677
55,15.907,476.999,868.209
56,15.759,482.735,869.709
57,15.610,488.452,871.180
58,15.459,494.146,872.621
59,15.308,499.814,874.033
60,15.155,505.452,875.420
61,15.000,511.058,876.780
62,14.844,516.635,878.116
63,14.687,522.180,879.427
64,14.527,527.699,880.715
65,14.366,533.195,881.982
66,14.204,538.675,883.225
67,14.039,544.143,884.448
68,13.872,549.603,885.651
69,13.703,555.060,886.833
70,13.532,560.517,887.994
71,13.359,565.974,889.135
72,13.183,571.432,890.255
73,13.004,576.885,891.354
74,12.822,582.331,892.432
75,12.638,587.762,893.488
76,12.450,593.168,894.522
77,12.258,598.540,895.537
78,12.063,603.864,896.530
79,11.864,609.126,897.503
80,11.661,614.308,898.458
81,11.454,619.393,899.396
82,11.243,624.363,900.319
83,11.027,629.199,901.229
84,10.807,633.881,902.129
85,10.583,638.394,903.023
86,10.356,642.723,903.913
87,10.124,646.858,904.805
88,9.889,650.797,905.702
89,9.651,654.538,906.609
90,9.411,658.093,907.531
91,9.168,661.474,908.471
92,8.924,664.704,909.436
93,8.680,667.809,910.426
94,8.435,670.820,911.446
95,8.191,673.768,912.499
96,7.947,676.692,913.587
97,7.705,679.626,914.711
98,7.465,682.607,915.877
99,7.228,685.676,917.085
100,6.993,688.874,918.343
101,6.762,692.243,919.655
102,6.535,695.839,921.031
103,6.313,699.720,922.480
104,6.096,703.968,924.019
105,5.886,708.680,925.664
106,5.684,713.990,927.441
107,5.492,720.079,929.385
108,5.313,727.199,931.538
109,5.152,735.641,933.963
110,5.014,745.807,936.732
111,4.904,758.799,939.916
112,4.829,774.543,943.567
113,4.780,792.069,947.546
114,4.735,808.269,951.582
115,4.688,822.659,955.644
116,4.642,835.925,959.665
117,4.597,848.343,963.551
118,4.554,860.013,967.253
119,4.513,871.007,970.750
120,4.474,881.370,974.042
121,4.438,891.111,977.125
122,4.405,900.269,980.016
123,4.374,908.840,982.719
124,4.345,916.874,985.246
125,4.318,924.381,987.601
126,4.293,931.375,989.790
127,4.270,937.901,991.827
128,4.248,943.948,993.715
129,4.228,949.575,995.469
130,4.210,954.781,997.088
131,4.192,959.608,998.586
132,4.176,964.068,999.969
133,4.160,968.186,1001.244
134,4.146,971.986,1002.425
135,4.133,975.485,1003.506
136,4.120,978.716,1004.499
137,4.108,981.679,1005.417
138,4.097,984.410,1006.256
139,4.086,986.913,1007.030
140,4.076,989.218,1007.735
141,4.067,991.327,1008.386
142,4.058,993.269,1008.989
143,4.049,995.043,1009.534
144,4.041,996.675,1010.029
145,4.033,998.164,1010.489
146,4.026,999.533,1010.911
147,4.019,1000.784,1011.297
148,4.012,1001.930,1011.644
149,4.006,1002.986,1011.970
150,4.000,1003.943,1012.268
151,3.994,1004.824,1012.535
152,3.989,1005.635,1012.781
153,3.983,1006.371,1013.008
154,3.978,1007.046,1013.215
155,3.973,1007.666,1013.407
156,3.968,1008.235,1013.578
157,3.964,1008.754,1013.739
158,3.959,1009.234,1013.889
159,3.955,1009.673,1014.026
160,3.951,1010.070,1014.143
161,3.947,1010.443,1014.260
162,3.943,1010.782,1014.364
163,3.939,1011.089,1014.457
164,3.936,1011.379,1014.543
165,3.932,1011.639,1014.630
166,3.929,1011.879,1014.701
167,3.926,1012.108,1014.772
168,3.922,1012.313,1014.833
169,3.919,1012.505,1014.894
170,3.916,1012.677,1014.946
171,3.913,1012.840,1014.997
172,3.911,1012.985,1015.039
173,3.908,1013.128,1015.085
174,3.905,1013.252,1015.121
175,3.903,1013.374,1015.162
176,3.900,1013.487,1015.194
177,3.897,1013.590,1015.228
178,3.895,1013.683,1015.253
179,3.893,1013.776,1015.279
180,3.890,1013.855,1015.305
181,3.888,1013.932,1015.331
182,3.886,1014.009,1015.356
183,3.884,1014.077,1015.380
184,3.882,1014.136,1015.398
185,3.879,1014.198,1015.414
186,3.877,1014.260,1015.430
187,3.875,1014.312,1015.450
188,3.873,1014.362,1015.462
189,3.872,1014.405,1015.480
190,3.870,1014.447,1015.494
191,3.868,1014.490,1015.510
192,3.866,1014.531,1015.520
193,3.864,1014.571,1015.530
194,3.863,1014.605,1015.540
195,3.861,1014.637,1015.550
196,3.859,1014.669,1015.560
197,3.858,1014.701,1015.570
198,3.856,1014.732,1015.580
199,3.854,1014.758,1015.590
200,3.853,1014.784,1015.600
201,3.851,1014.810,1015.610
202,3.850,1014.836,1015.610
203,3.848,1014.860,1015.620
204,3.847,1014.878,1015.630
205,3.845,1014.904,1015.634
206,3.844,1014.920,1015.640
207,3.843,1014.940,1015.650
208,3.841,1014.960,1015.650
209,3.840,1014.979,1015.660
210,3.839,1014.995,1015.660
211,3.837,1015.011,1015.670
212,3.836,1015.027,1015.670
213,3.835,1015.044,1015.680
214,3.833,1015.060,1015.680
215,3.832,1015.076,1015.690
216,3.831,1015.090,1015.690
217,3.830,1015.100,1015.700
218,3.829,1015.115,1015.700
219,3.827,1015.130,1015.710
220,3.826,1015.140,1015.710
221,3.825,1015.154,1015.714
222,3.824,1015.170,1015.720
223,3.823,1015.180,1015.720
224,3.822,1015.190,1015.730
225,3.821,1015.200,1015.730
226,3.820,1015.210,1015.730
227,3.819,1015.220,1015.740
228,3.818,1015.230,1015.740
229,3.817,1015.240,1015.740
230,3.816,1015.250,1015.741
231,3.815,1015.260,1015.750
232,3.814,1015.270,1015.750
233,3.813,1015.280,1015.750
234,3.812,1015.290,1015.760
235,3.811,1015.293,1015.760
236,3.810,1015.300,1015.760
237,3.809,1015.310,1015.760
238,3.808,1015.320,1015.770
239,3.807,1015.330,1015.770
240,3.806,1015.335,1015.770
241,3.805,1015.342,1015.772
242,3.804,1015.350,1015.780
243,3.804,1015.360,1015.780
244,3.803,1015.361,1015.780
245,3.802,1015.370,1015.780
246,3.801,1015.380,1015.790
247,3.800,1015.381,1015.790
248,3.799,1015.390,1015.790
249,3.798,1015.400,1015.790
250,3.798,1015.401,1015.790
251,3.797,1015.410,1015.800
252,3.796,1015.414,1015.800
253,3.795,1015.420,1015.800
254,3.795,1015.427,1015.800
255,3.794,1015.430,1015.800
256,3.793,1015.440,1015.800
257,3.792,1015.440,1015.810
258,3.791,1015.450,1015.810
259,3.791,1015.450,1015.810
260,3.790,1015.460,1015.810
261,3.789,1015.460,1015.810
262,3.789,1015.470,1015.810
263,3.788,1015.470,1015.820
264,3.787,1015.480,1015.820
265,3.786,1015.480,1015.820
266,3.786,1015.490,1015.820
267,3.785,1015.490,1015.820
268,3.784,1015.500,1015.820
269,3.784,1015.500,1015.827
270,3.783,1015.504,1015.830
271,3.782,1015.510,1015.830
272,3.782,1015.510,1015.830
273,3.781,1015.520,1015.830
274,3.780,1015.520,1015.830
275,3.780,1015.528,1015.830
276,3.779,1015.530,1015.830
277,3.778,1015.530,1015.840
278,3.778,1015.540,1015.840
279,3.777,1015.540,1015.840
280,3.777,1015.540,1015.840
281,3.776,1015.550,1015.840
282,3.775,1015.550,1015.840
283,3.775,1015.552,1015.840
284,3.774,1015.560,1015.840
285,3.774,1015.560,1015.846
286,3.773,1015.563,1015.850
287,3.772,1015.570,1015.850
288,3.772,1015.570,1015.850
289,3.771,1015.570,1015.850
290,3.771,1015.580,1015.850
291,3.770,1015.580,1015.850
292,3.770,1015.580,1015.850
293,3.769,1015.590,1015.850
294,3.768,1015.590,1015.850
295,3.768,1015.590,1015.855
296,3.767,1015.592,1015.860
297,3.767,1015.600,1015.860
298,3.766,1015.600,1015.860
299,3.766,1015.600,1015.860
300,3.765,1015.610,1015.860
301,3.765,1015.610,1015.860
302,3.764,1015.610,1015.860
303,3.764,1015.611,1015.860
304,3.763,1015.620,1015.860
305,3.763,1015.620,1015.860
306,3.762,1015.620,1015.862
307,3.762,1015.620,1015.870
308,3.761,1015.630,1015.870
309,3.761,1015.630,1015.870
310,3.760,1015.630,1015.870
311,3.760,1015.630,1015.870
312,3.759,1015.640,1015.870
313,3.759,1015.640,1015.870
314,3.758,1015.640,1015.870
315,3.758,1015.640,1015.870
316,3.757,1015.650,1015.870
317,3.757,1015.650,1015.870
318,3.756,1015.650,1015.870
319,3.756,1015.650,1015.870
320,3.755,1015.650,1015.880
321,3.755,1015.660,1015.880
322,3.754,1015.660,1015.880
323,3.754,1015.660,1015.880
324,3.754,1015.660,1015.880
325,3.753,1015.660,1015.880
326,3.753,1015.670,1015.880
327,3.752,1015.670,1015.880
328,3.752,1015.670,1015.880
329,3.751,1015.670,1015.880
330,3.751,1015.670,1015.880
331,3.751,1015.680,1015.880
332,3.750,1015.680,1015.880
333,3.750,1015.680,1015.880
334,3.749,1015.680,1015.880
335,3.749,1015.680,1015.880
336,3.748,1015.685,1015.890
337,3.748,1015.690,1015.890
338,3.748,1015.690,1015.890
339,3.747,1015.690,1015.890
340,3.747,1015.690,1015.890
341,3.746,1015.690,1015.890
342,3.746,1015.698,1015.890
343,3.746,1015.700,1015.890
344,3.745,1015.700,1015.890
345,3.745,1015.700,1015.890
346,3.744,1015.700,1015.890
347,3.744,1015.700,1015.890
348,3.744,1015.701,1015.890
349,3.743,1015.710,1015.890
350,3.743,1015.710,1015.890
351,3.742,1015.710,1015.890
352,3.742,1015.710,1015.890
353,3.742,1015.710,1015.890
354,3.741,1015.710,1015.895
355,3.741,1015.720,1015.900
356,3.741,1015.720,1015.900
357,3.740,1015.720,1015.900
358,3.740,1015.720,1015.900
359,3.739,1015.720,1015.900
360,3.739,1015.720,1015.900
361,3.739,1015.720,1015.900
362,3.738,1015.723,1015.900
363,3.738,1015.730,1015.900
364,3.738,1015.730,1015.900
365,3.737,1015.730,1015.900
366,3.737,1015.730,1015.900
367,3.737,1015.730,1015.900
368,3.736,1015.730,1015.900
369,3.736,1015.730,1015.900
370,3.736,1015.740,1015.900
371,3.735,1015.740,1015.900
372,3.735,1015.740,1015.900
373,3.735,1015.740,1015.900
374,3.734,1015.740,1015.900
375,3.734,1015.740,1015.900
376,3.733,1015.740,1015.900
377,3.733,1015.740,1015.904
378,3.733,1015.741,1015.910
379,3.732,1015.750,1015.910
380,3.732,1015.750,1015.910
381,3.732,1015.750,1015.910
382,3.732,1015.750,1015.910
383,3.731,1015.750,1015.910
384,3.731,1015.750,1015.910
385,3.731,1015.750,1015.910
386,3.730,1015.750,1015.910
387,3.730,1015.757,1015.910
388,3.730,1015.760,1015.910
389,3.729,1015.760,1015.910
390,3.729,1015.760,1015.910
391,3.729,1015.760,1015.910
392,3.728,1015.760,1015.910
393,3.728,1015.760,1015.910
394,3.728,1015.760,1015.910
395,3.727,1015.760,1015.910
396,3.727,1015.760,1015.910
397,3.727,1015.770,1015.910
398,3.726,1015.770,1015.910
399,3.726,1015.770,1015.910
400,3.726,1015.770,1015.910
401,3.726,1015.770,1015.910
402,3.725,1015.770,1015.910
403,3.725,1015.770,1015.910
404,3.725,1015.770,1015.910
405,3.724,1015.770,1015.910
406,3.724,1015.770,1015.910
407,3.724,1015.770,1015.920
408,3.724,1015.780,1015.920
409,3.723,1015.780,1015.920
410,3.723,1015.780,1015.920
411,3.723,1015.780,1015.920
412,3.722,1015.780,1015.920
413,3.722,1015.780,1015.920
414,3.722,1015.780,1015.920
415,3.722,1015.780,1015.920
416,3.721,1015.780,1015.920
417,3.721,1015.780,1015.920
418,3.721,1015.780,1015.920
419,3.720,1015.787,1015.920
420,3.720,1015.790,1015.920
421,3.720,1015.790,1015.920
422,3.720,1015.790,1015.920
423,3.719,1015.790,1015.920
424,3.719,1015.790,1015.920
425,3.719,1015.790,1015.920
426,3.719,1015.790,1015.920
427,3.718,1015.790,1015.920
428,3.718,1015.790,1015.920
429,3.718,1015.790,1015.920
430,3.717,1015.790,1015.920
431,3.717,1015.790,1015.920
432,3.717,1015.800,1015.920
433,3.717,1015.800,1015.920
434,3.716,1015.800,1015.920
435,3.716,1015.800,1015.920
436,3.716,1015.800,1015.920
437,3.716,1015.800,1015.920
438,3.715,1015.800,1015.920
439,3.715,1015.800,1015.920
440,3.715,1015.800,1015.920
441,3.715,1015.800,1015.920
442,3.714,1015.800,1015.920
443,3.714,1015.800,1015.920
444,3.714,1015.800,1015.920
445,3.714,1015.800,1015.930
446,3.713,1015.810,1015.930
447,3.713,1015.810,1015.930
448,3.713,1015.810,1015.930
449,3.713,1015.810,1015.930
450,3.712,1015.810,1015.930
451,3.712,1015.810,1015.930
452,3.712,1015.810,1015.930
453,3.712,1015.810,1015.930
454,3.711,1015.810,1015.930
455,3.711,1015.810,1015.930
456,3.711,1015.810,1015.930
457,3.711,1015.810,1015.930
458,3.711,1015.810,1015.930
459,3.710,1015.810,1015.930
460,3.710,1015.810,1015.930
461,3.710,1015.816,1015.930
462,3.710,1015.820,1015.930
463,3.709,1015.820,1015.930
464,3.709,1015.820,1015.930
465,3.709,1015.820,1015.930
466,3.709,1015.820,1015.930
467,3.708,1015.820,1015.930
468,3.708,1015.820,1015.930
469,3.708,1015.820,1015.930
470,3.708,1015.820,1015.930
471,3.708,1015.820,1015.930
472,3.707,1015.820,1015.930
473,3.707,1015.820,1015.930
474,3.707,1015.820,1015.930
475,3.707,1015.820,1015.930
476,3.706,1015.820,1015.930
477,3.706,1015.820,1015.930
478,3.706,1015.820,1015.930
479,3.706,1015.830,1015.930
480,3.706,1015.830,1015.930
481,3.705,1015.830,1015.930
482,3.705,1015.830,1015.930
483,3.705,1015.830,1015.930
484,3.705,1015.830,1015.930
485,3.704,1015.830,1015.930
486,3.704,1015.830,1015.930
487,3.704,1015.830,1015.930
488,3.704,1015.830,1015.930
489,3.704,1015.830,1015.930
490,3.703,1015.830,1015.930
491,3.703,1015.830,1015.930
492,3.703,1015.830,1015.930
493,3.703,1015.830,1015.930
494,3.703,1015.830,1015.930
495,3.702,1015.830,1015.930
496,3.702,1015.830,1015.936
497,3.702,1015.830,1015.940
498,3.702,1015.840,1015.940
499,3.702,1015.840,1015.940
500,3.701,1015.840,1015.940
501,3.701,1015.840,1015.940
502,3.701,1015.840,1015.940
503,3.701,1015.840,1015.940
504,3.701,1015.840,1015.940
505,3.700,1015.840,1015.940
506,3.700,1015.840,1015.940
507,3.700,1015.840,1015.940
508,3.700,1015.840,1015.940
509,3.700,1015.840,1015.940
510,3.699,1015.840,1015.940
511,3.699,1015.840,1015.940
512,3.699,1015.840,1015.940
513,3.699,1015.840,1015.940
514,3.699,1015.840,1015.940
515,3.698,1015.840,1015.940
516,3.698,1015.840,1015.940
517,3.698,1015.840,1015.940
518,3.698,1015.840,1015.940
519,3.698,1015.840,1015.940
520,3.697,1015.850,1015.940
521,3.697,1015.850,1015.940
522,3.697,1015.850,1015.940
523,3.697,1015.850,1015.940
524,3.697,1015.850,1015.940
525,3.696,1015.850,1015.940
526,3.696,1015.850,1015.940
527,3.696,1015.850,1015.940
528,3.696,1015.850,1015.940
529,3.696,1015.850,1015.940
530,3.696,1015.850,1015.940
531,3.695,1015.850,1015.940
532,3.695,1015.850,1015.940
533,3.695,1015.850,1015.940
534,3.695,1015.850,1015.940
535,3.695,1015.850,1015.940
536,3.694,1015.850,1015.940
537,3.694,1015.850,1015.940
538,3.694,1015.850,1015.940
539,3.694,1015.850,1015.940
540,3.694,1015.850,1015.940
541,3.694,1015.850,1015.940
542,3.693,1015.850,1015.940
543,3.693,1015.850,1015.940
544,3.693,1015.850,1015.940
545,3.693,1015.860,1015.940
546,3.693,1015.860,1015.940
547,3.693,1015.860,1015.940
548,3.692,1015.860,1015.940
549,3.692,1015.860,1015.940
550,3.692,1015.860,1015.940
551,3.692,1015.860,1015.940
552,3.692,1015.860,1015.940
553,3.691,1015.860,1015.940
554,3.691,1015.860,1015.940
555,3.691,1015.860,1015.940
556,3.691,1015.860,1015.940
557,3.691,1015.860,1015.940
558,3.691,1015.860,1015.940
559,3.690,1015.860,1015.940
560,3.690,1015.860,1015.940
561,3.690,1015.860,1015.940
562,3.690,1015.860,1015.940
563,3.690,1015.860,1015.940
564,3.690,1015.860,1015.940
565,3.689,1015.860,1015.940
566,3.689,1015.860,1015.940
567,3.689,1015.860,1015.940
568,3.689,1015.860,1015.940
569,3.689,1015.860,1015.940
570,3.689,1015.860,1015.940
571,3.688,1015.860,1015.946
572,3.688,1015.860,1015.950
573,3.688,1015.860,1015.950
574,3.688,1015.870,1015.950
575,3.688,1015.870,1015.950
576,3.688,1015.870,1015.950
577,3.687,1015.870,1015.950
578,3.687,1015.870,1015.950
579,3.687,1015.870,1015.950
580,3.687,1015.870,1015.950
581,3.687,1015.870,1015.950
582,3.687,1015.870,1015.950
583,3.687,1015.870,1015.950
584,3.686,1015.870,1015.950
585,3.686,1015.870,1015.950
586,3.686,1015.870,1015.950
587,3.686,1015.870,1015.950
588,3.686,1015.870,1015.950
589,3.686,1015.870,1015.950
590,3.685,1015.870,1015.950
591,3.685,1015.870,1015.950
592,3.685,1015.870,1015.950
593,3.685,1015.870,1015.950
594,3.685,1015.870,1015.950
595,3.685,1015.870,1015.950
596,3.684,1015.870,1015.950
597,3.684,1015.870,1015.950
598,3.684,1015.870,1015.950
599,3.684,1015.870,1015.950
600,3.684,1015.870,1015.950
601,3.684,1015.870,1015.950
602,3.684,1015.870,1015.950
603,3.683,1015.870,1015.950
604,3.683,1015.870,1015.950
605,3.683,1015.870,1015.950
606,3.683,1015.870,1015.950
607,3.683,1015.873,1015.950
608,3.683,1015.880,1015.950
609,3.683,1015.880,1015.950
610,3.682,1015.880,1015.950
611,3.682,1015.880,1015.950
612,3.682,1015.880,1015.950
613,3.682,1015.880,1015.950
614,3.682,1015.880,1015.950
615,3.682,1015.880,1015.950
616,3.682,1015.880,1015.950
617,3.681,1015.880,1015.950
618,3.681,1015.880,1015.950
619,3.681,1015.880,1015.950
620,3.681,1015.880,1015.950
621,3.681,1015.880,1015.950
622,3.681,1015.880,1015.950
623,3.681,1015.880,1015.950
624,3.680,1015.880,1015.950
625,3.680,1015.880,1015.950
626,3.680,1015.880,1015.950
627,3.680,1015.880,1015.950
628,3.680,1015.880,1015.950
629,3.680,1015.880,1015.950
630,3.680,1015.880,1015.950
631,3.679,1015.880,1015.950
632,3.679,1015.880,1015.950
633,3.679,1015.880,1015.950
634,3.679,1015.880,1015.950
635,3.679,1015.880,1015.950
636,3.679,1015.880,1015.950
637,3.679,1015.880,1015.950
638,3.678,1015.880,1015.950
639,3.678,1015.880,1015.950
640,3.678,1015.880,1015.950
641,3.678,1015.880,1015.950
642,3.678,1015.880,1015.950
643,3.678,1015.880,1015.950
644,3.678,1015.880,1015.950
645,3.677,1015.880,1015.950
646,3.677,1015.880,1015.950
647,3.677,1015.885,1015.950
648,3.677,1015.890,1015.950
649,3.677,1015.890,1015.950
650,3.677,1015.890,1015.950
651,3.677,1015.890,1015.950
652,3.677,1015.890,1015.950
653,3.676,1015.890,1015.950
654,3.676,1015.890,1015.950
655,3.676,1015.890,1015.950
656,3.676,1015.890,1015.950
657,3.676,1015.890,1015.950
658,3.676,1015.890,1015.950
659,3.676,1015.890,1015.950
660,3.675,1015.890,1015.950
661,3.675,1015.890,1015.950
662,3.675,1015.890,1015.950
663,3.675,1015.890,1015.950
664,3.675,1015.890,1015.950
665,3.675,1015.890,1015.950
666,3.675,1015.890,1015.950
667,3.675,1015.890,1015.950
668,3.674,1015.890,1015.950
669,3.674,1015.890,1015.950
670,3.674,1015.890,1015.950
671,3.674,1015.890,1015.950
672,3.674,1015.890,1015.950
673,3.674,1015.890,1015.950
674,3.674,1015.890,1015.950
675,3.674,1015.890,1015.950
676,3.673,1015.890,1015.950
677,3.673,1015.890,1015.950
678,3.673,1015.890,1015.950
679,3.673,1015.890,1015.950
680,3.673,1015.890,1015.950
681,3.673,1015.890,1015.950
682,3.673,1015.890,1015.950
683,3.673,1015.890,1015.950
684,3.672,1015.890,1015.950
685,3.672,1015.890,1015.950
686,3.672,1015.890,1015.950
687,3.672,1015.890,1015.950
688,3.672,1015.890,1015.950
689,3.672,1015.890,1015.950
690,3.672,1015.890,1015.960
691,3.672,1015.890,1015.960
692,3.671,1015.890,1015.960
693,3.671,1015.890,1015.960
694,3.671,1015.890,1015.960
695,3.671,1015.896,1015.960
696,3.671,1015.900,1015.960
697,3.671,1015.900,1015.960
698,3.671,1015.900,1015.960
699,3.671,1015.900,1015.960
700,3.670,1015.900,1015.960
701,3.670,1015.900,1015.960
702,3.670,1015.900,1015.960
703,3.670,1015.900,1015.960
704,3.670,1015.900,1015.960
705,3.670,1015.900,1015.960
706,3.670,1015.900,1015.960
707,3.670,1015.900,1015.960
708,3.670,1015.900,1015.960
709,3.669,1015.900,1015.960
710,3.669,1015.900,1015.960
711,3.669,1015.900,1015.960
712,3.669,1015.900,1015.960
713,3.669,1015.900,1015.960
714,3.669,1015.900,1015.960
715,3.669,1015.900,1015.960
716,3.669,1015.900,1015.960
717,3.668,1015.900,1015.960
718,3.668,1015.900,1015.960
719,3.668,1015.900,1015.960
720,3.668,1015.900,1015.960
721,3.668,1015.900,1015.960
722,3.668,1015.900,1015.960
