# Time (s),Mass (g),T Back (K),T Front (K)
0,68.400,293.000,293.000
1,68.400,293.000,476.585
2,68.400,293.000,546.275
3,68.399,293.000,594.821
4,68.396,293.000,632.140
5,68.388,293.000,661.500
6,68.374,293.000,685.466
7,68.350,293.000,704.657
8,68.312,293.000,720.189
9,68.255,293.000,732.025
10,68.166,293.000,739.669
11,68.042,293.000,744.226
12,67.903,293.000,748.396
13,67.754,293.000,752.199
14,67.601,293.000,755.916
15,67.444,293.000,759.728
16,67.288,293.000,763.817
17,67.132,293.000,768.153
18,66.977,293.000,772.599
19,66.821,293.000,777.077
20,66.664,293.000,781.353
21,66.508,293.000,785.480
22,66.351,293.000,789.472
23,66.195,293.000,793.293
24,66.040,293.000,796.928
25,65.887,293.000,800.422
26,65.734,293.000,803.770
27,65.582,293.000,807.000
28,65.432,293.000,810.184
29,65.282,293.000,813.219
30,65.132,293.000,816.155
31,64.984,293.000,818.999
32,64.837,293.000,821.741
33,64.690,293.000,824.395
34,64.545,293.000,826.959
35,64.401,293.000,829.442
36,64.257,293.000,831.841
37,64.115,293.000,834.164
38,63.973,293.000,836.414
39,63.833,293.001,838.591
40,63.693,293.001,840.702
41,63.554,293.001,842.747
42,63.417,293.001,844.732
43,63.280,293.002,846.658
44,63.144,293.002,848.525
45,63.010,293.003,850.342
46,62.876,293.004,852.105
47,62.743,293.005,853.818
48,62.611,293.006,855.486
49,62.480,293.008,857.106
50,62.349,293.010,858.684
51,62.220,293.012,860.221
52,62.091,293.014,861.715
53,61.964,293.017,863.173
54,61.837,293.021,864.594
55,61.711,293.025,865.978
56,61.585,293.030,867.329
57,61.461,293.035,868.645
58,61.337,293.041,869.933
59,61.214,293.048,871.186
60,61.092,293.056,872.413
61,60.970,293.064,873.610
62,60.850,293.074,874.782
63,60.729,293.085,875.924
64,60.610,293.097,877.043
65,60.491,293.110,878.137
66,60.373,293.125,879.207
67,60.256,293.141,880.254
68,60.139,293.159,881.279
69,60.023,293.178,882.283
70,59.908,293.199,883.266
71,59.793,293.222,884.229
72,59.679,293.247,885.172
73,59.565,293.274,886.096
74,59.452,293.303,887.004
75,59.340,293.334,887.892
76,59.228,293.368,888.763
77,59.117,293.403,889.620
78,59.006,293.442,890.458
79,58.896,293.483,891.280
80,58.787,293.527,892.090
81,58.678,293.574,892.883
82,58.569,293.624,893.662
83,58.461,293.676,894.427
84,58.354,293.732,895.180
85,58.247,293.791,895.918
86,58.140,293.853,896.644
87,58.034,293.920,897.357
88,57.929,293.988,898.059
89,57.824,294.062,898.749
90,57.719,294.139,899.427
91,57.615,294.219,900.094
92,57.512,294.303,900.751
93,57.408,294.392,901.397
94,57.306,294.484,902.032
95,57.203,294.581,902.657
96,57.102,294.682,903.273
97,57.000,294.787,903.879
98,56.899,294.897,904.476
99,56.799,295.011,905.065
100,56.699,295.130,905.643
101,56.599,295.253,906.214
102,56.500,295.381,906.776
103,56.401,295.514,907.329
104,56.302,295.652,907.875
105,56.204,295.794,908.412
106,56.106,295.942,908.943
107,56.009,296.094,909.466
108,55.912,296.252,909.981
109,55.815,296.416,910.489
110,55.719,296.584,910.991
111,55.623,296.757,911.485
112,55.528,296.937,911.973
113,55.433,297.121,912.454
114,55.338,297.311,912.929
115,55.243,297.506,913.397
116,55.149,297.706,913.860
117,55.055,297.913,914.315
118,54.962,298.125,914.766
119,54.869,298.343,915.211
120,54.776,298.566,915.650
121,54.683,298.795,916.083
122,54.591,299.030,916.511
123,54.499,299.271,916.934
124,54.408,299.517,917.352
125,54.317,299.771,917.764
126,54.226,300.029,918.172
127,54.135,300.293,918.575
128,54.045,300.563,918.973
129,53.955,300.840,919.366
130,53.865,301.121,919.755
131,53.776,301.410,920.138
132,53.686,301.704,920.518
133,53.598,302.005,920.893
134,53.509,302.311,921.264
135,53.421,302.623,921.631
136,53.333,302.942,921.993
137,53.245,303.266,922.352
138,53.157,303.597,922.707
139,53.070,303.933,923.057
140,52.983,304.276,923.405
141,52.897,304.625,923.748
142,52.810,304.980,924.086
143,52.724,305.341,924.422
144,52.638,305.708,924.754
145,52.552,306.081,925.083
146,52.467,306.461,925.408
147,52.382,306.846,925.730
148,52.297,307.238,926.049
149,52.212,307.635,926.364
150,52.128,308.039,926.676
151,52.044,308.449,926.984
152,51.960,308.864,927.291
153,51.876,309.286,927.593
154,51.792,309.713,927.893
155,51.709,310.148,928.190
156,51.626,310.587,928.483
157,51.543,311.032,928.774
158,51.461,311.484,929.062
159,51.378,311.942,929.348
160,51.296,312.405,929.630
161,51.214,312.874,929.910
162,51.133,313.349,930.187
163,51.051,313.831,930.462
164,50.970,314.317,930.734
165,50.889,314.810,931.004
166,50.808,315.308,931.270
167,50.727,315.812,931.535
168,50.647,316.322,931.797
169,50.566,316.837,932.057
170,50.486,317.359,932.314
171,50.407,317.886,932.569
172,50.327,318.418,932.822
173,50.247,318.957,933.073
174,50.168,319.500,933.320
175,50.089,320.049,933.567
176,50.010,320.605,933.812
177,49.931,321.165,934.053
178,49.853,321.730,934.293
179,49.775,322.301,934.530
180,49.696,322.878,934.767
181,49.618,323.459,935.000
182,49.541,324.046,935.231
183,49.463,324.639,935.462
184,49.386,325.236,935.689
185,49.308,325.840,935.916
186,49.231,326.448,936.140
187,49.154,327.061,936.363
188,49.078,327.679,936.583
189,49.001,328.303,936.802
190,48.924,328.931,937.018
191,48.848,329.564,937.233
192,48.772,330.203,937.447
193,48.696,330.847,937.659
194,48.620,331.495,937.869
195,48.545,332.148,938.077
196,48.469,332.806,938.284
197,48.394,333.470,938.489
198,48.319,334.138,938.693
199,48.244,334.809,938.895
200,48.169,335.486,939.096
201,48.094,336.168,939.294
202,48.020,336.855,939.492
203,47.945,337.546,939.688
204,47.871,338.241,939.882
205,47.797,338.941,940.075
206,47.723,339.645,940.267
207,47.649,340.355,940.457
208,47.575,341.069,940.646
209,47.501,341.787,940.834
210,47.428,342.508,941.020
211,47.355,343.235,941.204
212,47.282,343.966,941.388
213,47.208,344.701,941.570
214,47.136,345.439,941.751
215,47.063,346.183,941.930
216,46.990,346.931,942.108
217,46.917,347.682,942.285
218,46.845,348.437,942.461
219,46.773,349.196,942.635
220,46.700,349.960,942.808
221,46.628,350.727,942.980
222,46.556,351.499,943.151
223,46.485,352.274,943.322
224,46.413,353.053,943.490
225,46.341,353.835,943.657
226,46.270,354.622,943.823
227,46.198,355.412,943.989
228,46.127,356.205,944.153
229,46.056,357.004,944.315
230,45.985,357.804,944.477
231,45.914,358.609,944.638
232,45.843,359.417,944.798
233,45.772,360.228,944.957
234,45.701,361.044,945.114
235,45.631,361.862,945.271
236,45.560,362.684,945.427
237,45.490,363.509,945.581
238,45.419,364.338,945.735
239,45.349,365.169,945.888
240,45.279,366.004,946.040
241,45.209,366.842,946.190
242,45.139,367.684,946.340
243,45.069,368.528,946.489
244,44.999,369.376,946.637
245,44.930,370.226,946.784
246,44.860,371.080,946.930
247,44.790,371.937,947.075
248,44.721,372.795,947.219
249,44.652,373.658,947.363
250,44.582,374.524,947.506
251,44.513,375.392,947.647
252,44.444,376.263,947.788
253,44.375,377.136,947.927
254,44.306,378.013,948.067
255,44.237,378.892,948.205
256,44.168,379.774,948.343
257,44.099,380.659,948.479
258,44.030,381.546,948.616
259,43.961,382.436,948.750
260,43.893,383.328,948.885
261,43.824,384.221,949.019
262,43.755,385.119,949.151
263,43.687,386.019,949.283
264,43.618,386.920,949.414
265,43.550,387.824,949.545
266,43.482,388.730,949.674
267,43.413,389.639,949.803
268,43.345,390.550,949.932
269,43.277,391.463,950.059
270,43.209,392.378,950.186
271,43.141,393.296,950.313
272,43.072,394.216,950.437
273,43.004,395.136,950.562
274,42.936,396.061,950.687
275,42.868,396.986,950.810
276,42.800,397.913,950.932
277,42.732,398.843,951.054
278,42.665,399.774,951.176
279,42.597,400.708,951.297
280,42.529,401.642,951.417
281,42.461,402.579,951.536
282,42.393,403.517,951.654
283,42.326,404.458,951.772
284,42.258,405.399,951.889
285,42.190,406.342,952.006
286,42.122,407.288,952.123
287,42.055,408.234,952.238
288,41.987,409.182,952.353
289,41.919,410.131,952.467
290,41.852,411.082,952.581
291,41.784,412.035,952.694
292,41.716,412.988,952.806
293,41.649,413.943,952.918
294,41.581,414.900,953.030
295,41.514,415.856,953.140
296,41.446,416.814,953.251
297,41.378,417.775,953.360
298,41.311,418.735,953.469
299,41.243,419.697,953.578
300,41.176,420.661,953.686
301,41.108,421.624,953.792
302,41.040,422.589,953.899
303,40.973,423.555,954.006
304,40.905,424.522,954.111
305,40.837,425.490,954.216
306,40.770,426.457,954.320
307,40.702,427.426,954.425
308,40.634,428.396,954.528
309,40.566,429.366,954.631
310,40.499,430.338,954.734
311,40.431,431.309,954.836
312,40.363,432.281,954.937
313,40.295,433.254,955.038
314,40.227,434.226,955.138
315,40.159,435.199,955.239
316,40.091,436.173,955.337
317,40.023,437.147,955.437
318,39.955,438.121,955.535
319,39.887,439.096,955.633
320,39.819,440.071,955.730
321,39.751,441.045,955.827
322,39.683,442.020,955.924
323,39.615,442.995,956.020
324,39.546,443.970,956.115
325,39.478,444.945,956.210
326,39.410,445.919,956.304
327,39.341,446.894,956.398
328,39.273,447.869,956.492
329,39.204,448.843,956.585
330,39.136,449.817,956.678
331,39.067,450.791,956.770
332,38.999,451.765,956.861
333,38.930,452.738,956.953
334,38.861,453.710,957.044
335,38.792,454.682,957.134
336,38.723,455.655,957.224
337,38.654,456.626,957.314
338,38.585,457.597,957.403
339,38.516,458.567,957.491
340,38.447,459.536,957.580
341,38.377,460.506,957.668
342,38.308,461.474,957.755
343,38.239,462.442,957.842
344,38.169,463.410,957.929
345,38.099,464.377,958.015
346,38.030,465.342,958.100
347,37.960,466.308,958.186
348,37.890,467.272,958.271
349,37.820,468.236,958.355
350,37.750,469.199,958.440
351,37.680,470.161,958.524
352,37.610,471.123,958.608
353,37.539,472.083,958.690
354,37.469,473.044,958.773
355,37.399,474.003,958.856
356,37.328,474.962,958.938
357,37.257,475.920,959.019
358,37.186,476.877,959.101
359,37.116,477.833,959.181
360,37.045,478.790,959.262
361,36.974,479.745,959.342
362,36.902,480.700,959.422
363,36.831,481.655,959.502
364,36.760,482.608,959.581
365,36.688,483.561,959.659
366,36.617,484.514,959.738
367,36.545,485.467,959.816
368,36.473,486.418,959.894
369,36.401,487.370,959.972
370,36.329,488.321,960.049
371,36.257,489.272,960.126
372,36.185,490.222,960.203
373,36.112,491.173,960.279
374,36.040,492.123,960.355
375,35.967,493.074,960.431
376,35.895,494.024,960.507
377,35.822,494.975,960.582
378,35.749,495.925,960.656
379,35.676,496.875,960.731
380,35.602,497.826,960.805
381,35.529,498.777,960.879
382,35.456,499.727,960.952
383,35.382,500.679,961.026
384,35.308,501.631,961.099
385,35.234,502.583,961.172
386,35.161,503.535,961.244
387,35.086,504.488,961.317
388,35.012,505.442,961.389
389,34.938,506.395,961.460
390,34.863,507.349,961.531
391,34.789,508.304,961.603
392,34.714,509.260,961.673
393,34.639,510.217,961.743
394,34.564,511.173,961.813
395,34.489,512.131,961.883
396,34.413,513.089,961.953
397,34.338,514.049,962.022
398,34.262,515.009,962.091
399,34.186,515.970,962.159
400,34.110,516.931,962.227
401,34.034,517.894,962.295
402,33.958,518.857,962.363
403,33.881,519.821,962.430
404,33.805,520.787,962.497
405,33.728,521.752,962.563
406,33.651,522.719,962.630
407,33.574,523.687,962.696
408,33.496,524.656,962.762
409,33.419,525.624,962.826
410,33.341,526.595,962.891
411,33.263,527.565,962.956
412,33.185,528.537,963.020
413,33.107,529.510,963.084
414,33.028,530.483,963.148
415,32.950,531.457,963.211
416,32.871,532.431,963.273
417,32.792,533.407,963.336
418,32.713,534.383,963.398
419,32.633,535.360,963.460
420,32.554,536.337,963.521
421,32.474,537.315,963.582
422,32.394,538.294,963.643
423,32.313,539.272,963.703
424,32.233,540.251,963.763
425,32.152,541.230,963.823
426,32.071,542.211,963.881
427,31.990,543.191,963.940
428,31.908,544.171,963.999
429,31.827,545.152,964.057
430,31.745,546.132,964.115
431,31.662,547.112,964.171
432,31.580,548.093,964.229
433,31.497,549.073,964.285
434,31.414,550.053,964.341
435,31.331,551.033,964.396
436,31.248,552.012,964.452
437,31.164,552.992,964.507
438,31.080,553.971,964.562
439,30.996,554.948,964.616
440,30.911,555.926,964.669
441,30.826,556.902,964.723
442,30.741,557.879,964.776
443,30.656,558.854,964.828
444,30.570,559.827,964.881
445,30.484,560.800,964.933
446,30.398,561.771,964.984
447,30.311,562.741,965.036
448,30.225,563.709,965.087
449,30.137,564.677,965.138
450,30.050,565.642,965.188
451,29.962,566.605,965.238
452,29.874,567.567,965.288
453,29.786,568.526,965.337
454,29.697,569.484,965.386
455,29.608,570.439,965.435
456,29.519,571.392,965.483
457,29.429,572.341,965.531
458,29.339,573.290,965.579
459,29.249,574.235,965.626
460,29.158,575.176,965.674
461,29.068,576.115,965.721
462,28.976,577.051,965.767
463,28.885,577.983,965.814
464,28.793,578.911,965.860
465,28.701,579.835,965.907
466,28.608,580.757,965.952
467,28.515,581.674,965.998
468,28.422,582.588,966.043
469,28.329,583.496,966.088
470,28.235,584.401,966.133
471,28.141,585.301,966.179
472,28.046,586.196,966.223
473,27.951,587.086,966.268
474,27.856,587.972,966.312
475,27.761,588.852,966.357
476,27.665,589.727,966.400
477,27.568,590.597,966.445
478,27.472,591.461,966.489
479,27.375,592.320,966.533
480,27.278,593.172,966.577
481,27.180,594.018,966.621
482,27.083,594.859,966.664
483,26.985,595.693,966.709
484,26.886,596.521,966.752
485,26.787,597.342,966.796
486,26.688,598.157,966.840
487,26.589,598.964,966.884
488,26.489,599.766,966.928
489,26.389,600.560,966.971
490,26.289,601.346,967.016
491,26.188,602.126,967.060
492,26.087,602.899,967.104
493,25.986,603.664,967.148
494,25.884,604.422,967.193
495,25.782,605.173,967.238
496,25.680,605.916,967.283
497,25.578,606.651,967.328
498,25.475,607.379,967.373
499,25.372,608.099,967.419
500,25.269,608.813,967.465
501,25.166,609.517,967.511
502,25.062,610.215,967.558
503,24.958,610.905,967.605
504,24.854,611.588,967.652
505,24.750,612.262,967.700
506,24.645,612.929,967.748
507,24.540,613.590,967.796
508,24.435,614.242,967.845
509,24.330,614.887,967.895
510,24.225,615.526,967.945
511,24.119,616.156,967.995
512,24.013,616.780,968.047
513,23.907,617.397,968.098
514,23.801,618.008,968.149
515,23.695,618.611,968.202
516,23.589,619.208,968.256
517,23.482,619.799,968.309
518,23.375,620.383,968.364
519,23.269,620.962,968.419
520,23.162,621.535,968.475
521,23.055,622.101,968.531
522,22.948,622.663,968.588
523,22.841,623.219,968.646
524,22.734,623.770,968.704
525,22.626,624.316,968.764
526,22.519,624.858,968.824
527,22.412,625.396,968.884
528,22.304,625.928,968.946
529,22.197,626.457,969.008
530,22.090,626.982,969.071
531,21.982,627.504,969.135
532,21.875,628.022,969.199
533,21.768,628.537,969.264
534,21.660,629.050,969.331
535,21.553,629.560,969.397
536,21.446,630.067,969.465
537,21.339,630.572,969.534
538,21.231,631.076,969.603
539,21.124,631.579,969.673
540,21.017,632.080,969.743
541,20.910,632.578,969.815
542,20.804,633.078,969.887
543,20.697,633.577,969.960
544,20.590,634.074,970.034
545,20.484,634.572,970.109
546,20.377,635.070,970.185
547,20.271,635.569,970.261
548,20.165,636.068,970.338
549,20.059,636.569,970.416
550,19.953,637.071,970.494
551,19.848,637.573,970.574
552,19.742,638.078,970.653
553,19.637,638.585,970.735
554,19.531,639.094,970.816
555,19.427,639.605,970.899
556,19.322,640.119,970.982
557,19.217,640.636,971.066
558,19.113,641.157,971.151
559,19.009,641.681,971.237
560,18.904,642.209,971.324
561,18.801,642.741,971.411
562,18.697,643.277,971.499
563,18.594,643.818,971.588
564,18.491,644.364,971.678
565,18.388,644.915,971.770
566,18.285,645.472,971.861
567,18.183,646.033,971.954
568,18.081,646.603,972.047
569,17.979,647.178,972.141
570,17.878,647.760,972.237
571,17.776,648.349,972.333
572,17.675,648.946,972.431
573,17.575,649.550,972.529
574,17.474,650.163,972.629
575,17.375,650.784,972.729
576,17.275,651.416,972.831
577,17.175,652.056,972.933
578,17.076,652.707,973.037
579,16.978,653.367,973.142
580,16.880,654.039,973.249
581,16.782,654.723,973.356
582,16.684,655.419,973.465
583,16.587,656.127,973.575
584,16.490,656.849,973.687
585,16.394,657.586,973.800
586,16.298,658.337,973.915
587,16.203,659.103,974.032
588,16.108,659.887,974.150
589,16.014,660.687,974.270
590,15.920,661.506,974.392
591,15.827,662.343,974.516
592,15.734,663.201,974.641
593,15.642,664.080,974.769
594,15.550,664.982,974.900
595,15.459,665.908,975.032
596,15.369,666.859,975.167
597,15.280,667.837,975.304
598,15.191,668.844,975.445
599,15.103,669.881,975.588
600,15.015,670.950,975.734
601,14.929,672.053,975.883
602,14.843,673.194,976.037
603,14.759,674.371,976.193
604,14.675,675.593,976.353
605,14.593,676.857,976.518
606,14.511,678.170,976.687
607,14.431,679.534,976.860
608,14.352,680.952,977.040
609,14.275,682.429,977.223
610,14.199,683.970,977.413
611,14.124,685.579,977.609
612,14.051,687.261,977.811
613,13.980,689.020,978.021
614,13.911,690.863,978.238
615,13.844,692.799,978.463
616,13.779,694.827,978.697
617,13.717,696.964,978.940
618,13.658,699.201,979.194
619,13.601,701.561,979.458
620,13.548,704.041,979.732
621,13.497,706.661,980.017
622,13.450,709.429,980.315
623,13.407,712.344,980.624
624,13.367,715.413,980.944
625,13.331,718.641,981.276
626,13.298,722.019,981.616
627,13.270,725.552,981.964
628,13.244,729.198,982.316
629,13.221,732.925,982.668
630,13.199,736.671,983.016
631,13.179,740.406,983.357
632,13.159,744.065,983.687
633,13.139,747.584,984.007
634,13.118,750.960,984.320
635,13.097,754.234,984.627
636,13.077,757.427,984.933
637,13.055,760.550,985.236
638,13.034,763.614,985.539
639,13.013,766.624,985.844
640,12.991,769.587,986.147
641,12.970,772.506,986.453
642,12.949,775.382,986.758
643,12.927,778.222,987.065
644,12.906,781.025,987.371
645,12.885,783.793,987.679
646,12.864,786.528,987.985
647,12.843,789.232,988.291
648,12.822,791.906,988.597
649,12.801,794.551,988.902
650,12.781,797.167,989.207
651,12.761,799.757,989.510
652,12.741,802.319,989.812
653,12.721,804.854,990.112
654,12.701,807.365,990.410
655,12.681,809.850,990.707
656,12.662,812.311,991.002
657,12.643,814.748,991.295
658,12.624,817.162,991.587
659,12.606,819.551,991.875
660,12.588,821.916,992.162
661,12.569,824.262,992.447
662,12.552,826.580,992.729
663,12.534,828.879,993.009
664,12.517,831.156,993.286
665,12.499,833.409,993.562
666,12.483,835.641,993.835
667,12.466,837.851,994.105
668,12.449,840.039,994.372
669,12.433,842.205,994.638
670,12.417,844.351,994.901
671,12.402,846.476,995.162
672,12.386,848.579,995.420
673,12.371,850.660,995.675
674,12.356,852.722,995.928
675,12.341,854.763,996.179
676,12.326,856.782,996.427
677,12.312,858.781,996.672
678,12.298,860.761,996.915
679,12.284,862.719,997.156
680,12.270,864.658,997.394
681,12.256,866.574,997.630
682,12.243,868.472,997.863
683,12.230,870.351,998.094
684,12.217,872.209,998.323
685,12.204,874.047,998.548
686,12.191,875.866,998.772
687,12.179,877.664,998.993
688,12.167,879.445,999.212
689,12.155,881.205,999.428
690,12.143,882.947,999.642
691,12.131,884.668,999.854
692,12.119,886.371,1000.065
693,12.108,888.056,1000.271
694,12.097,889.722,1000.473
695,12.086,891.368,1000.674
696,12.075,892.997,1000.875
697,12.064,894.606,1001.077
698,12.054,896.197,1001.268
699,12.043,897.771,1001.460
700,12.033,899.326,1001.651
701,12.023,900.864,1001.843
702,12.013,902.384,1002.034
703,12.003,903.885,1002.216
704,11.994,905.370,1002.398
705,11.984,906.838,1002.578
706,11.975,908.288,1002.752
707,11.965,909.719,1002.932
708,11.956,911.136,1003.104
709,11.947,912.535,1003.276
710,11.938,913.917,1003.449
711,11.930,915.283,1003.614
712,11.921,916.632,1003.778
713,11.912,917.965,1003.942
714,11.904,919.281,1004.107
715,11.896,920.582,1004.266
716,11.888,921.866,1004.426
717,11.880,923.135,1004.580
718,11.872,924.388,1004.735
719,11.864,925.627,1004.884
720,11.856,926.849,1005.033
721,11.848,928.055,1005.188
722,11.841,929.248,1005.332
723,11.833,930.426,1005.472
724,11.826,931.589,1005.620
725,11.819,932.737,1005.757
726,11.812,933.869,1005.894
727,11.805,934.988,1006.031
728,11.798,936.093,1006.168
729,11.791,937.184,1006.305
730,11.784,938.261,1006.436
731,11.777,939.324,1006.570
732,11.771,940.374,1006.697
733,11.764,941.410,1006.824
734,11.758,942.432,1006.951
735,11.752,943.440,1007.075
736,11.745,944.437,1007.195
737,11.739,945.420,1007.315
738,11.733,946.390,1007.434
739,11.727,947.348,1007.554
740,11.721,948.293,1007.665
