# Time (s),Mass (g),T Back (K),T Front (K)
0,68.400,293.000,293.000
1,68.400,293.000,501.410
2,68.400,293.000,534.232
3,68.400,293.000,561.271
4,68.400,293.000,584.350
5,68.399,293.000,606.455
6,68.397,293.000,624.408
7,68.392,293.000,641.499
8,68.384,293.000,655.773
9,68.370,293.000,669.265
10,68.351,293.000,681.020
11,68.325,293.000,692.135
12,68.291,293.000,701.744
13,68.247,293.000,710.349
14,68.191,293.000,717.303
15,68.119,293.000,722.865
16,68.033,293.000,727.340
17,67.936,293.000,731.586
18,67.834,293.001,735.816
19,67.727,293.001,740.037
20,67.617,293.002,744.226
21,67.506,293.004,748.416
22,67.394,293.006,752.613
23,67.281,293.009,756.782
24,67.169,293.014,760.951
25,67.057,293.019,765.085
26,66.945,293.027,769.105
27,66.834,293.037,772.995
28,66.723,293.049,776.762
29,66.612,293.065,780.389
30,66.502,293.084,783.856
31,66.392,293.108,787.141
32,66.282,293.135,790.287
33,66.172,293.168,793.301
34,66.063,293.206,796.204
35,65.953,293.251,798.991
36,65.845,293.301,801.664
37,65.736,293.359,804.235
38,65.628,293.424,806.695
39,65.520,293.496,809.064
40,65.412,293.576,811.346
41,65.305,293.666,813.548
42,65.198,293.764,815.674
43,65.091,293.871,817.734
44,64.985,293.987,819.726
45,64.879,294.113,821.653
46,64.773,294.249,823.519
47,64.668,294.395,825.325
48,64.563,294.551,827.076
49,64.458,294.718,828.769
50,64.353,294.895,830.414
51,64.249,295.083,832.011
52,64.146,295.281,833.563
53,64.042,295.490,835.073
54,63.939,295.710,836.541
55,63.836,295.941,837.974
56,63.734,296.183,839.370
57,63.632,296.435,840.731
58,63.530,296.698,842.057
59,63.428,296.972,843.351
60,63.327,297.256,844.613
61,63.226,297.551,845.845
62,63.126,297.856,847.045
63,63.026,298.172,848.218
64,62.926,298.497,849.364
65,62.826,298.833,850.485
66,62.727,299.180,851.581
67,62.628,299.536,852.655
68,62.530,299.901,853.708
69,62.431,300.277,854.739
70,62.333,300.661,855.749
71,62.236,301.055,856.738
72,62.138,301.458,857.709
73,62.041,301.870,858.658
74,61.944,302.291,859.587
75,61.848,302.721,860.499
76,61.752,303.159,861.395
77,61.656,303.606,862.273
78,61.560,304.060,863.137
79,61.465,304.523,863.987
80,61.370,304.993,864.821
81,61.275,305.471,865.642
82,61.181,305.957,866.446
83,61.086,306.450,867.235
84,60.993,306.950,868.011
85,60.899,307.457,868.775
86,60.806,307.971,869.526
87,60.712,308.491,870.266
88,60.620,309.019,870.996
89,60.527,309.553,871.712
90,60.435,310.092,872.418
91,60.343,310.638,873.111
92,60.251,311.189,873.792
93,60.159,311.747,874.464
94,60.068,312.310,875.128
95,59.977,312.879,875.782
96,59.886,313.453,876.427
97,59.795,314.032,877.060
98,59.705,314.616,877.684
99,59.615,315.206,878.299
100,59.525,315.799,878.906
101,59.436,316.398,879.506
102,59.346,317.001,880.098
103,59.257,317.608,880.681
104,59.168,318.220,881.254
105,59.079,318.836,881.820
106,58.991,319.456,882.380
107,58.903,320.080,882.933
108,58.815,320.708,883.480
109,58.727,321.339,884.016
110,58.639,321.974,884.546
111,58.552,322.613,885.070
112,58.465,323.255,885.589
113,58.378,323.900,886.101
114,58.291,324.549,886.606
115,58.205,325.200,887.104
116,58.118,325.855,887.596
117,58.032,326.512,888.084
118,57.946,327.172,888.566
119,57.861,327.836,889.041
120,57.775,328.501,889.510
121,57.690,329.170,889.974
122,57.605,329.840,890.435
123,57.520,330.513,890.889
124,57.435,331.188,891.337
125,57.350,331.867,891.779
126,57.266,332.545,892.219
127,57.182,333.228,892.654
128,57.098,333.912,893.083
129,57.014,334.598,893.507
130,56.930,335.285,893.927
131,56.847,335.975,894.344
132,56.764,336.666,894.754
133,56.681,337.359,895.160
134,56.598,338.054,895.563
135,56.515,338.750,895.962
136,56.432,339.447,896.356
137,56.350,340.146,896.746
138,56.268,340.847,897.132
139,56.186,341.548,897.516
140,56.104,342.252,897.893
141,56.022,342.956,898.267
142,55.940,343.662,898.639
143,55.859,344.369,899.007
144,55.778,345.076,899.371
145,55.697,345.785,899.731
146,55.616,346.495,900.089
147,55.535,347.205,900.443
148,55.454,347.917,900.792
149,55.374,348.629,901.140
150,55.293,349.343,901.484
151,55.213,350.057,901.824
152,55.133,350.772,902.161
153,55.053,351.487,902.497
154,54.973,352.203,902.828
155,54.894,352.919,903.156
156,54.814,353.637,903.482
157,54.735,354.355,903.805
158,54.656,355.074,904.124
159,54.577,355.792,904.441
160,54.498,356.512,904.756
161,54.419,357.231,905.067
162,54.340,357.951,905.376
163,54.262,358.672,905.684
164,54.183,359.393,905.986
165,54.105,360.114,906.287
166,54.027,360.835,906.587
167,53.949,361.557,906.882
168,53.871,362.279,907.175
169,53.793,363.000,907.468
170,53.716,363.722,907.756
171,53.638,364.445,908.042
172,53.561,365.168,908.328
173,53.483,365.890,908.609
174,53.406,366.613,908.889
175,53.329,367.335,909.167
176,53.252,368.058,909.442
177,53.175,368.781,909.715
178,53.099,369.503,909.988
179,53.022,370.226,910.255
180,52.946,370.948,910.522
181,52.869,371.671,910.788
182,52.793,372.393,911.050
183,52.717,373.115,911.311
184,52.641,373.838,911.571
185,52.565,374.559,911.828
186,52.489,375.281,912.083
187,52.413,376.002,912.337
188,52.338,376.724,912.588
189,52.262,377.445,912.837
190,52.187,378.166,913.086
191,52.111,378.887,913.331
192,52.036,379.607,913.577
193,51.961,380.327,913.818
194,51.886,381.047,914.059
195,51.811,381.766,914.299
196,51.736,382.486,914.536
197,51.661,383.205,914.773
198,51.587,383.923,915.007
199,51.512,384.641,915.239
200,51.438,385.358,915.471
201,51.363,386.076,915.700
202,51.289,386.793,915.928
203,51.215,387.509,916.154
204,51.141,388.226,916.379
205,51.067,388.941,916.603
206,50.993,389.657,916.825
207,50.919,390.370,917.044
208,50.845,391.085,917.265
209,50.771,391.799,917.481
210,50.698,392.512,917.697
211,50.624,393.225,917.913
212,50.551,393.938,918.126
213,50.477,394.650,918.339
214,50.404,395.361,918.549
215,50.331,396.071,918.758
216,50.257,396.781,918.967
217,50.184,397.490,919.173
218,50.111,398.200,919.379
219,50.038,398.908,919.583
220,49.965,399.616,919.786
221,49.892,400.323,919.988
222,49.820,401.030,920.187
223,49.747,401.736,920.386
224,49.674,402.442,920.585
225,49.602,403.146,920.781
226,49.529,403.850,920.977
227,49.457,404.554,921.171
228,49.384,405.257,921.364
229,49.312,405.960,921.557
230,49.240,406.661,921.748
231,49.168,407.362,921.937
232,49.095,408.061,922.126
233,49.023,408.762,922.313
234,48.951,409.460,922.500
235,48.879,410.158,922.686
236,48.807,410.855,922.870
237,48.736,411.552,923.054
238,48.664,412.249,923.236
239,48.592,412.943,923.418
240,48.520,413.638,923.598
241,48.449,414.332,923.777
242,48.377,415.025,923.956
243,48.305,415.717,924.133
244,48.234,416.409,924.310
245,48.163,417.099,924.485
246,48.091,417.790,924.660
247,48.020,418.479,924.834
248,47.948,419.167,925.006
249,47.877,419.854,925.178
250,47.806,420.541,925.349
251,47.735,421.227,925.519
252,47.664,421.912,925.688
253,47.593,422.597,925.856
254,47.522,423.280,926.024
255,47.451,423.963,926.190
256,47.380,424.645,926.356
257,47.309,425.326,926.521
258,47.238,426.006,926.684
259,47.167,426.684,926.847
260,47.096,427.363,927.010
261,47.025,428.041,927.172
262,46.955,428.718,927.331
263,46.884,429.393,927.492
264,46.813,430.068,927.650
265,46.743,430.742,927.809
266,46.672,431.415,927.965
267,46.602,432.087,928.123
268,46.531,432.759,928.279
269,46.461,433.429,928.434
270,46.390,434.098,928.588
271,46.320,434.767,928.742
272,46.249,435.435,928.895
273,46.179,436.100,929.047
274,46.108,436.766,929.198
275,46.038,437.431,929.349
276,45.968,438.094,929.499
277,45.898,438.757,929.648
278,45.827,439.418,929.797
279,45.757,440.079,929.944
280,45.687,440.738,930.092
281,45.617,441.397,930.238
282,45.546,442.054,930.383
283,45.476,442.711,930.529
284,45.406,443.367,930.674
285,45.336,444.021,930.817
286,45.266,444.674,930.960
287,45.196,445.326,931.102
288,45.126,445.977,931.244
289,45.056,446.628,931.385
290,44.986,447.277,931.525
291,44.916,447.924,931.665
292,44.846,448.572,931.805
293,44.776,449.217,931.943
294,44.706,449.861,932.082
295,44.636,450.505,932.218
296,44.566,451.147,932.355
297,44.496,451.788,932.491
298,44.426,452.428,932.627
299,44.356,453.067,932.762
300,44.286,453.705,932.896
301,44.216,454.341,933.030
302,44.146,454.976,933.163
303,44.076,455.610,933.296
304,44.006,456.243,933.428
305,43.936,456.874,933.559
306,43.866,457.505,933.690
307,43.796,458.134,933.820
308,43.726,458.762,933.951
309,43.656,459.388,934.079
310,43.587,460.013,934.208
311,43.517,460.637,934.336
312,43.447,461.260,934.464
313,43.377,461.881,934.591
314,43.307,462.501,934.717
315,43.237,463.120,934.843
316,43.167,463.738,934.969
317,43.097,464.354,935.093
318,43.027,464.968,935.218
319,42.957,465.581,935.342
320,42.887,466.193,935.465
321,42.817,466.804,935.588
322,42.747,467.414,935.710
323,42.677,468.021,935.833
324,42.607,468.628,935.954
325,42.537,469.232,936.075
326,42.467,469.836,936.195
327,42.397,470.437,936.315
328,42.327,471.039,936.434
329,42.257,471.638,936.553
330,42.187,472.235,936.672
331,42.117,472.831,936.790
332,42.047,473.426,936.908
333,41.977,474.020,937.025
334,41.907,474.611,937.141
335,41.836,475.201,937.257
336,41.766,475.790,937.373
337,41.696,476.376,937.488
338,41.626,476.963,937.603
339,41.556,477.547,937.717
340,41.485,478.129,937.831
341,41.415,478.710,937.945
342,41.345,479.290,938.058
343,41.274,479.868,938.170
344,41.204,480.444,938.283
345,41.134,481.019,938.395
346,41.063,481.592,938.506
347,40.993,482.163,938.617
348,40.923,482.733,938.727
349,40.852,483.302,938.838
350,40.782,483.868,938.947
351,40.711,484.433,939.056
352,40.641,484.997,939.165
353,40.570,485.559,939.274
354,40.499,486.120,939.382
355,40.429,486.678,939.490
356,40.358,487.235,939.597
357,40.287,487.791,939.704
358,40.217,488.345,939.810
359,40.146,488.898,939.917
360,40.075,489.448,940.022
361,40.004,489.998,940.128
362,39.934,490.545,940.233
363,39.863,491.091,940.337
364,39.792,491.636,940.441
365,39.721,492.179,940.546
366,39.650,492.720,940.649
367,39.579,493.260,940.752
368,39.508,493.799,940.855
369,39.437,494.336,940.958
370,39.366,494.871,941.059
371,39.295,495.405,941.161
372,39.223,495.937,941.263
373,39.152,496.468,941.363
374,39.081,496.997,941.464
375,39.010,497.525,941.565
376,38.938,498.052,941.665
377,38.867,498.576,941.765
378,38.796,499.099,941.864
379,38.724,499.622,941.963
380,38.653,500.143,942.063
381,38.582,500.662,942.160
382,38.510,501.181,942.259
383,38.438,501.697,942.357
384,38.367,502.213,942.454
385,38.295,502.727,942.552
386,38.224,503.240,942.648
387,38.152,503.752,942.745
388,38.080,504.262,942.841
389,38.008,504.772,942.937
390,37.937,505.279,943.033
391,37.865,505.787,943.128
392,37.793,506.293,943.224
393,37.721,506.798,943.318
394,37.649,507.302,943.413
395,37.577,507.805,943.507
396,37.505,508.307,943.601
397,37.433,508.808,943.695
398,37.361,509.308,943.788
399,37.289,509.807,943.881
400,37.217,510.305,943.974
401,37.145,510.803,944.067
402,37.072,511.299,944.159
403,37.000,511.795,944.251
404,36.928,512.290,944.344
405,36.856,512.785,944.435
406,36.783,513.278,944.526
407,36.711,513.771,944.617
408,36.638,514.264,944.708
409,36.566,514.756,944.798
410,36.493,515.247,944.889
411,36.421,515.738,944.979
412,36.348,516.228,945.068
413,36.276,516.719,945.158
414,36.203,517.208,945.247
415,36.130,517.697,945.336
416,36.058,518.186,945.425
417,35.985,518.675,945.514
418,35.912,519.163,945.602
419,35.839,519.652,945.690
420,35.767,520.139,945.778
421,35.694,520.628,945.866
422,35.621,521.115,945.953
423,35.548,521.603,946.040
424,35.475,522.090,946.126
425,35.402,522.578,946.213
426,35.329,523.066,946.300
427,35.256,523.554,946.386
428,35.182,524.041,946.472
429,35.109,524.530,946.558
430,35.036,525.018,946.643
431,34.963,525.505,946.729
432,34.890,525.994,946.814
433,34.816,526.483,946.898
434,34.743,526.972,946.983
435,34.669,527.462,947.067
436,34.596,527.951,947.152
437,34.523,528.440,947.235
438,34.449,528.931,947.319
439,34.375,529.422,947.402
440,34.302,529.913,947.486
441,34.228,530.405,947.569
442,34.155,530.897,947.652
443,34.081,531.390,947.734
444,34.007,531.884,947.816
445,33.933,532.378,947.899
446,33.859,532.872,947.981
447,33.786,533.368,948.062
448,33.712,533.864,948.144
449,33.638,534.361,948.225
450,33.564,534.858,948.306
451,33.490,535.356,948.387
452,33.416,535.855,948.467
453,33.341,536.355,948.549
454,33.267,536.855,948.629
455,33.193,537.356,948.708
456,33.119,537.857,948.788
457,33.044,538.360,948.868
458,32.970,538.864,948.947
459,32.895,539.368,949.026
460,32.821,539.874,949.105
461,32.746,540.380,949.184
462,32.672,540.887,949.263
463,32.597,541.396,949.340
464,32.522,541.904,949.419
465,32.448,542.415,949.497
466,32.373,542.926,949.574
467,32.298,543.437,949.651
468,32.223,543.951,949.729
469,32.148,544.465,949.806
470,32.073,544.979,949.882
471,31.998,545.496,949.958
472,31.923,546.012,950.035
473,31.847,546.531,950.111
474,31.772,547.049,950.187
475,31.697,547.569,950.263
476,31.621,548.090,950.338
477,31.546,548.613,950.414
478,31.470,549.136,950.488
479,31.394,549.660,950.563
480,31.319,550.185,950.637
481,31.243,550.711,950.711
482,31.167,551.239,950.786
483,31.091,551.767,950.860
484,31.015,552.297,950.933
485,30.939,552.827,951.007
486,30.862,553.358,951.080
487,30.786,553.891,951.153
488,30.710,554.424,951.226
489,30.633,554.960,951.299
490,30.557,555.495,951.371
491,30.480,556.032,951.443
492,30.403,556.570,951.515
493,30.326,557.109,951.586
494,30.249,557.648,951.658
495,30.172,558.189,951.729
496,30.095,558.731,951.800
497,30.018,559.274,951.871
498,29.941,559.818,951.941
499,29.863,560.362,952.012
500,29.786,560.908,952.082
501,29.708,561.454,952.152
502,29.630,562.003,952.222
503,29.552,562.551,952.292
504,29.474,563.100,952.361
505,29.396,563.651,952.430
506,29.318,564.203,952.499
507,29.240,564.754,952.567
508,29.161,565.307,952.636
509,29.083,565.861,952.704
510,29.004,566.416,952.772
511,28.925,566.972,952.840
512,28.846,567.528,952.908
513,28.767,568.086,952.975
514,28.688,568.644,953.043
515,28.609,569.203,953.110
516,28.529,569.762,953.177
517,28.450,570.322,953.244
518,28.370,570.883,953.310
519,28.290,571.445,953.377
520,28.210,572.007,953.443
521,28.130,572.570,953.509
522,28.050,573.133,953.575
523,27.970,573.698,953.640
524,27.889,574.263,953.706
525,27.809,574.828,953.771
526,27.728,575.394,953.836
527,27.647,575.960,953.902
528,27.566,576.528,953.966
529,27.485,577.095,954.030
530,27.403,577.663,954.096
531,27.322,578.231,954.159
532,27.240,578.800,954.224
533,27.159,579.368,954.288
534,27.077,579.938,954.353
535,26.995,580.508,954.416
536,26.913,581.077,954.480
537,26.831,581.648,954.544
538,26.748,582.218,954.607
539,26.666,582.789,954.671
540,26.583,583.360,954.734
541,26.500,583.931,954.797
542,26.417,584.502,954.860
543,26.334,585.073,954.924
544,26.251,585.644,954.987
545,26.167,586.216,955.050
546,26.084,586.787,955.112
547,26.000,587.357,955.175
548,25.917,587.928,955.238
549,25.833,588.499,955.301
550,25.749,589.069,955.363
551,25.665,589.640,955.426
552,25.581,590.209,955.489
553,25.496,590.779,955.552
554,25.412,591.348,955.615
555,25.327,591.917,955.678
556,25.243,592.485,955.740
557,25.158,593.052,955.803
558,25.073,593.620,955.865
559,24.988,594.187,955.929
560,24.903,594.752,955.992
561,24.818,595.317,956.054
562,24.732,595.881,956.118
563,24.647,596.445,956.181
564,24.562,597.007,956.244
565,24.476,597.569,956.308
566,24.391,598.129,956.371
567,24.305,598.688,956.435
568,24.219,599.246,956.498
569,24.133,599.804,956.562
570,24.048,600.359,956.626
571,23.962,600.913,956.690
572,23.876,601.466,956.755
573,23.790,602.018,956.819
574,23.704,602.567,956.884
575,23.618,603.116,956.949
576,23.532,603.662,957.013
577,23.446,604.207,957.079
578,23.360,604.750,957.144
579,23.273,605.291,957.210
580,23.187,605.830,957.276
581,23.101,606.366,957.342
582,23.015,606.902,957.408
583,22.929,607.434,957.475
584,22.843,607.965,957.541
585,22.757,608.492,957.609
586,22.671,609.018,957.676
587,22.585,609.541,957.743
588,22.499,610.062,957.812
589,22.413,610.581,957.880
590,22.327,611.097,957.949
591,22.241,611.609,958.017
592,22.155,612.119,958.086
593,22.070,612.627,958.155
594,21.984,613.131,958.225
595,21.898,613.633,958.295
596,21.813,614.132,958.365
597,21.727,614.628,958.436
598,21.642,615.121,958.507
599,21.557,615.610,958.578
600,21.472,616.098,958.649
601,21.387,616.581,958.721
602,21.302,617.063,958.793
603,21.217,617.540,958.865
604,21.132,618.015,958.938
605,21.048,618.487,959.011
606,20.963,618.957,959.084
607,20.879,619.422,959.157
608,20.795,619.885,959.231
609,20.710,620.345,959.305
610,20.626,620.803,959.380
611,20.543,621.256,959.454
612,20.459,621.708,959.530
613,20.376,622.157,959.605
614,20.292,622.603,959.681
615,20.209,623.047,959.756
616,20.126,623.487,959.832
617,20.043,623.927,959.909
618,19.960,624.362,959.985
619,19.878,624.796,960.062
620,19.796,625.228,960.140
621,19.713,625.657,960.217
622,19.631,626.085,960.295
623,19.550,626.511,960.373
624,19.468,626.935,960.451
625,19.387,627.357,960.529
626,19.305,627.778,960.608
627,19.224,628.197,960.688
628,19.143,628.616,960.766
629,19.063,629.033,960.846
630,18.982,629.449,960.926
631,18.902,629.863,961.006
632,18.822,630.279,961.086
633,18.742,630.692,961.167
634,18.662,631.106,961.247
635,18.583,631.519,961.328
636,18.504,631.933,961.409
637,18.424,632.346,961.490
638,18.346,632.760,961.572
639,18.267,633.174,961.653
640,18.189,633.589,961.735
641,18.110,634.004,961.817
642,18.032,634.420,961.900
643,17.955,634.838,961.982
644,17.877,635.257,962.064
645,17.800,635.677,962.148
646,17.722,636.099,962.231
647,17.646,636.523,962.313
648,17.569,636.949,962.397
649,17.492,637.377,962.481
650,17.416,637.807,962.564
651,17.340,638.240,962.649
652,17.264,638.676,962.732
653,17.188,639.115,962.817
654,17.113,639.557,962.902
655,17.038,640.002,962.986
656,16.963,640.451,963.071
657,16.888,640.904,963.156
658,16.814,641.360,963.242
659,16.739,641.822,963.327
660,16.665,642.288,963.413
661,16.591,642.758,963.498
662,16.517,643.233,963.584
663,16.444,643.714,963.671
664,16.371,644.200,963.757
665,16.298,644.691,963.844
666,16.225,645.189,963.931
667,16.152,645.693,964.019
668,16.080,646.203,964.106
669,16.008,646.721,964.194
670,15.936,647.245,964.282
671,15.864,647.776,964.370
672,15.793,648.316,964.459
673,15.722,648.864,964.548
674,15.651,649.419,964.637
675,15.580,649.983,964.727
676,15.509,650.557,964.817
677,15.439,651.140,964.907
678,15.369,651.733,964.998
679,15.299,652.336,965.089
680,15.230,652.950,965.180
681,15.161,653.575,965.272
682,15.092,654.211,965.364
683,15.023,654.860,965.458
684,14.954,655.522,965.551
685,14.886,656.197,965.645
686,14.818,656.886,965.739
687,14.750,657.589,965.835
688,14.683,658.307,965.930
689,14.616,659.041,966.027
690,14.549,659.792,966.124
691,14.483,660.560,966.221
692,14.416,661.346,966.320
693,14.351,662.151,966.419
694,14.285,662.977,966.519
695,14.220,663.822,966.621
696,14.155,664.692,966.722
697,14.091,665.583,966.825
698,14.026,666.499,966.928
699,13.963,667.441,967.034
700,13.899,668.410,967.140
701,13.836,669.409,967.247
702,13.774,670.438,967.356
703,13.712,671.498,967.465
704,13.650,672.593,967.576
705,13.589,673.725,967.689
706,13.529,674.895,967.803
707,13.469,676.106,967.919
708,13.409,677.359,968.037
709,13.351,678.661,968.156
710,13.292,680.013,968.277
711,13.235,681.417,968.400
712,13.178,682.879,968.525
713,13.122,684.401,968.654
714,13.066,685.988,968.784
715,13.012,687.647,968.917
716,12.958,689.383,969.053
717,12.905,691.198,969.192
718,12.853,693.103,969.334
719,12.803,695.103,969.479
720,12.753,697.204,969.628
721,12.705,699.417,969.781
722,12.658,701.747,969.938
723,12.613,704.209,970.101
724,12.569,706.806,970.267
725,12.526,709.551,970.439
726,12.486,712.452,970.617
727,12.447,715.514,970.801
728,12.410,718.752,970.990
729,12.376,722.161,971.186
730,12.343,725.743,971.389
731,12.313,729.493,971.599
732,12.285,733.391,971.815
733,12.259,737.418,972.039
734,12.236,741.532,972.269
735,12.214,745.693,972.504
736,12.193,749.846,972.745
737,12.174,753.948,972.991
738,12.156,757.951,973.240
739,12.138,761.834,973.493
740,12.120,765.580,973.751
741,12.103,769.193,974.011
742,12.085,772.682,974.276
