# Time (s),Mass (g),T Back (K),T Front (K)
0,22.800,293.000,293.000
1,22.800,293.000,406.143
2,22.800,293.000,443.675
3,22.800,293.000,470.666
4,22.800,293.000,492.334
5,22.800,293.002,510.538
6,22.800,293.010,526.185
7,22.799,293.028,539.879
8,22.798,293.068,551.854
9,22.796,293.141,562.523
10,22.794,293.265,572.046
11,22.791,293.457,580.688
12,22.787,293.733,588.561
13,22.783,294.109,595.795
14,22.778,294.601,602.454
15,22.772,295.217,608.594
16,22.765,295.967,614.264
17,22.757,296.855,619.494
18,22.749,297.884,624.335
19,22.739,299.056,628.805
20,22.729,300.367,632.952
21,22.717,301.814,636.791
22,22.704,303.394,640.362
23,22.690,305.099,643.673
24,22.675,306.925,646.759
25,22.660,308.864,649.625
26,22.642,310.910,652.296
27,22.624,313.053,654.779
28,22.605,315.290,657.089
29,22.584,317.611,659.242
30,22.563,320.009,661.239
31,22.540,322.478,663.105
32,22.516,325.011,664.830
33,22.491,327.603,666.453
34,22.465,330.246,667.948
35,22.438,332.936,669.364
36,22.409,335.667,670.664
37,22.380,338.434,671.910
38,22.349,341.234,673.045
39,22.317,344.059,674.149
40,22.285,346.909,675.146
41,22.251,349.779,676.135
42,22.216,352.665,677.014
43,22.180,355.563,677.907
44,22.143,358.473,678.686
45,22.105,361.389,679.500
46,22.066,364.312,680.193
47,22.027,367.237,680.940
48,21.986,370.163,681.558
49,21.944,373.088,682.250
50,21.902,376.012,682.801
51,21.858,378.929,683.440
52,21.814,381.843,683.945
53,21.768,384.749,684.496
54,21.722,387.647,684.995
55,21.674,390.536,685.432
56,21.626,393.415,685.971
57,21.578,396.282,686.291
58,21.528,399.136,686.804
59,21.477,401.978,687.190
60,21.426,404.806,687.526
61,21.375,407.619,688.022
62,21.322,410.416,688.323
63,21.269,413.198,688.648
64,21.215,415.962,689.111
65,21.161,418.708,689.402
66,21.106,421.436,689.661
67,21.050,424.144,690.099
68,20.994,426.834,690.458
69,20.937,429.502,690.683
70,20.880,432.150,691.006
71,20.822,434.775,691.423
72,20.764,437.377,691.740
73,20.706,439.957,691.965
74,20.646,442.513,692.259
75,20.587,445.043,692.663
76,20.527,447.549,693.059
77,20.466,450.027,693.298
78,20.405,452.480,693.542
79,20.344,454.904,693.860
80,20.282,457.300,694.256
81,20.220,459.667,694.649
82,20.157,462.005,694.986
83,20.094,464.311,695.263
84,20.030,466.588,695.548
85,19.966,468.834,695.845
86,19.902,471.049,696.210
87,19.837,473.232,696.595
88,19.772,475.384,696.977
89,19.706,477.505,697.356
90,19.640,479.596,697.730
91,19.574,481.657,698.102
92,19.507,483.688,698.447
93,19.440,485.689,698.792
94,19.372,487.663,699.142
95,19.304,489.610,699.495
96,19.235,491.531,699.851
97,19.166,493.427,700.210
98,19.097,495.300,700.569
99,19.027,497.151,700.931
100,18.957,498.981,701.293
101,18.887,500.791,701.654
102,18.816,502.580,701.995
103,18.745,504.354,702.336
104,18.673,506.109,702.673
105,18.601,507.850,703.010
106,18.529,509.574,703.346
107,18.456,511.286,703.682
108,18.383,512.981,704.045
109,18.310,514.663,704.407
110,18.236,516.334,704.766
111,18.162,517.990,705.114
112,18.087,519.633,705.439
113,18.012,521.266,705.763
114,17.937,522.885,706.095
115,17.862,524.492,706.448
116,17.786,526.087,706.798
117,17.710,527.668,707.127
118,17.633,529.239,707.444
119,17.556,530.796,707.770
120,17.479,532.341,708.114
121,17.401,533.875,708.451
122,17.323,535.396,708.764
123,17.245,536.905,709.081
124,17.166,538.402,709.420
125,17.087,539.887,709.746
126,17.008,541.360,710.054
127,16.928,542.822,710.378
128,16.848,544.272,710.709
129,16.767,545.712,711.016
130,16.686,547.142,711.331
131,16.605,548.561,711.658
132,16.524,549.971,711.964
133,16.442,551.374,712.276
134,16.360,552.767,712.598
135,16.277,554.153,712.900
136,16.194,555.532,713.214
137,16.111,556.905,713.528
138,16.028,558.273,713.827
139,15.944,559.637,714.145
140,15.860,560.996,714.448
141,15.775,562.354,714.755
142,15.690,563.710,715.064
143,15.605,565.066,715.364
144,15.519,566.420,715.676
145,15.433,567.778,715.973
146,15.347,569.136,716.283
147,15.261,570.499,716.583
148,15.174,571.865,716.888
149,15.086,573.237,717.189
150,14.999,574.614,717.493
151,14.911,575.998,717.795
152,14.822,577.391,718.097
153,14.734,578.793,718.399
154,14.645,580.203,718.702
155,14.555,581.625,719.002
156,14.466,583.059,719.306
157,14.376,584.503,719.605
158,14.285,585.962,719.911
159,14.194,587.434,720.208
160,14.103,588.921,720.516
161,14.011,590.424,720.816
162,13.919,591.941,721.120
163,13.827,593.476,721.424
164,13.734,595.027,721.727
165,13.640,596.596,722.035
166,13.546,598.184,722.338
167,13.452,599.789,722.645
168,13.357,601.412,722.954
169,13.261,603.056,723.259
170,13.165,604.716,723.569
171,13.068,606.396,723.881
172,12.971,608.097,724.190
173,12.873,609.817,724.503
174,12.775,611.554,724.819
175,12.675,613.310,725.133
176,12.575,615.084,725.449
177,12.475,616.877,725.770
178,12.373,618.685,726.092
179,12.271,620.510,726.415
180,12.168,622.349,726.739
181,12.065,624.202,727.067
182,11.960,626.065,727.399
183,11.855,627.941,727.734
184,11.748,629.824,728.072
185,11.641,631.714,728.414
186,11.533,633.608,728.758
187,11.424,635.507,729.108
188,11.315,637.404,729.461
189,11.204,639.298,729.821
190,11.093,641.186,730.185
191,10.981,643.068,730.556
192,10.868,644.937,730.933
193,10.754,646.796,731.316
194,10.639,648.638,731.707
195,10.524,650.462,732.105
196,10.408,652.265,732.512
197,10.291,654.048,732.926
198,10.174,655.806,733.349
199,10.057,657.541,733.780
200,9.939,659.250,734.220
201,9.821,660.933,734.670
202,9.702,662.587,735.131
203,9.583,664.217,735.601
204,9.465,665.817,736.082
205,9.346,667.393,736.574
206,9.228,668.943,737.076
207,9.110,670.465,737.587
208,8.992,671.965,738.110
209,8.875,673.446,738.645
210,8.758,674.904,739.191
211,8.643,676.346,739.749
212,8.528,677.772,740.319
213,8.415,679.182,740.900
214,8.303,680.581,741.494
215,8.192,681.970,742.100
216,8.083,683.351,742.720
217,7.976,684.727,743.353
218,7.871,686.097,743.998
219,7.769,687.466,744.657
220,7.669,688.840,745.331
221,7.571,690.211,746.021
222,7.477,691.594,746.727
223,7.386,693.002,747.445
224,7.298,694.402,748.184
225,7.214,695.832,748.936
226,7.134,697.274,749.707
227,7.058,698.768,750.490
228,6.987,700.258,751.298
229,6.919,701.789,752.122
230,6.857,703.380,752.963
231,6.799,705.008,753.822
232,6.745,706.677,754.702
233,6.696,708.389,755.603
234,6.652,710.188,756.516
235,6.613,712.042,757.440
236,6.578,713.886,758.412
237,6.546,715.836,759.370
238,6.519,717.786,760.366
239,6.494,719.770,761.376
240,6.471,721.748,762.383
241,6.449,723.619,763.428
242,6.426,725.427,764.438
243,6.404,727.143,765.486
244,6.382,728.828,766.508
245,6.361,730.466,767.531
246,6.339,732.064,768.556
247,6.318,733.646,769.545
248,6.297,735.176,770.558
249,6.277,736.700,771.526
250,6.257,738.185,772.503
251,6.237,739.652,773.460
252,6.217,741.101,774.398
253,6.198,742.516,775.346
254,6.178,743.925,776.249
255,6.160,745.298,777.171
256,6.141,746.661,778.061
257,6.123,748.002,778.947
258,6.105,749.321,779.829
259,6.087,750.631,780.680
260,6.070,751.908,781.550
261,6.053,753.180,782.381
262,6.036,754.427,783.218
263,6.020,755.659,784.043
264,6.003,756.878,784.849
265,5.987,758.073,785.666
266,5.972,759.261,786.445
267,5.956,760.424,787.240
268,5.941,761.577,788.012
269,5.926,762.714,788.777
270,5.911,763.832,789.542
271,5.897,764.944,790.279
272,5.882,766.029,791.030
273,5.868,767.109,791.755
274,5.855,768.171,792.480
275,5.841,769.219,793.198
276,5.828,770.256,793.898
277,5.814,771.274,794.608
278,5.801,772.286,795.288
279,5.789,773.279,795.976
280,5.776,774.261,796.649
281,5.764,775.233,797.313
282,5.752,776.188,797.981
283,5.740,777.135,798.623
284,5.728,778.065,799.275
285,5.716,778.986,799.908
286,5.705,779.894,800.538
287,5.694,780.791,801.164
288,5.683,781.680,801.773
289,5.672,782.551,802.389
290,5.661,783.415,802.984
291,5.651,784.266,803.581
292,5.640,785.107,804.169
293,5.630,785.939,804.746
294,5.620,786.757,805.328
295,5.610,787.567,805.887
296,5.601,788.365,806.452
297,5.591,789.154,807.006
298,5.582,789.933,807.552
299,5.572,790.701,808.098
300,5.563,791.462,808.627
301,5.554,792.209,809.161
302,5.545,792.950,809.681
303,5.536,793.681,810.198
304,5.528,794.402,810.711
305,5.519,795.116,811.211
306,5.511,795.817,811.716
307,5.503,796.512,812.205
308,5.495,797.197,812.694
309,5.487,797.874,813.176
310,5.479,798.544,813.649
311,5.471,799.203,814.124
312,5.463,799.856,814.584
313,5.456,800.498,815.046
314,5.448,801.133,815.500
315,5.441,801.761,815.947
316,5.434,802.381,816.394
317,5.426,802.993,816.827
318,5.419,803.596,817.264
319,5.412,804.193,817.690
320,5.406,804.782,818.112
321,5.399,805.363,818.533
322,5.392,805.939,818.942
323,5.386,806.505,819.354
324,5.379,807.065,819.754
325,5.373,807.618,820.153
326,5.366,808.164,820.547
327,5.360,808.705,820.934
328,5.354,809.236,821.322
329,5.348,809.763,821.699
330,5.342,810.282,822.076
331,5.336,810.795,822.447
332,5.330,811.301,822.812
333,5.324,811.801,823.177
334,5.319,812.296,823.532
335,5.313,812.783,823.887
336,5.308,813.264,824.236
337,5.302,813.741,824.580
338,5.297,814.210,824.923
339,5.292,814.675,825.257
340,5.286,815.133,825.593
341,5.281,815.586,825.921
342,5.276,816.033,826.246
343,5.271,816.474,826.569
344,5.266,816.911,826.884
345,5.261,817.340,827.200
346,5.256,817.766,827.508
347,5.251,818.186,827.815
348,5.247,818.601,828.118
349,5.242,819.011,828.416
350,5.237,819.415,828.714
351,5.233,819.816,829.003
352,5.228,820.210,829.293
353,5.224,820.599,829.578
354,5.219,820.985,829.859
355,5.215,821.365,830.139
356,5.210,821.741,830.412
357,5.206,822.111,830.686
358,5.202,822.478,830.953
359,5.198,822.841,831.218
360,5.194,823.197,831.482
361,5.190,823.551,831.739
362,5.186,823.900,831.996
363,5.182,824.245,832.248
364,5.178,824.585,832.498
365,5.174,824.921,832.746
366,5.170,825.253,832.989
367,5.166,825.581,833.232
368,5.162,825.905,833.468
369,5.159,826.225,833.704
370,5.155,826.541,833.937
371,5.151,826.854,834.167
372,5.148,827.162,834.395
373,5.144,827.468,834.618
374,5.141,827.768,834.841
375,5.137,828.065,835.059
376,5.134,828.359,835.276
377,5.130,828.650,835.491
378,5.127,828.936,835.701
379,5.123,829.220,835.911
380,5.120,829.499,836.117
381,5.117,829.776,836.321
382,5.114,830.049,836.523
383,5.110,830.318,836.721
384,5.107,830.585,836.920
385,5.104,830.849,837.113
386,5.101,831.108,837.306
387,5.098,831.365,837.496
388,5.095,831.619,837.683
389,5.092,831.870,837.870
390,5.089,832.118,838.052
391,5.086,832.363,838.234
392,5.083,832.605,838.413
393,5.080,832.843,838.590
394,5.077,833.080,838.765
395,5.074,833.314,838.937
396,5.072,833.544,839.109
397,5.069,833.771,839.277
398,5.066,833.996,839.444
399,5.063,834.219,839.609
400,5.061,834.439,839.771
401,5.058,834.655,839.933
402,5.055,834.870,840.092
403,5.053,835.082,840.249
404,5.050,835.291,840.405
405,5.047,835.498,840.558
406,5.045,835.703,840.711
407,5.042,835.905,840.860
408,5.040,836.104,841.009
409,5.037,836.302,841.155
410,5.035,836.497,841.300
411,5.032,836.689,841.444
412,5.030,836.880,841.584
413,5.028,837.068,841.725
414,5.025,837.253,841.863
415,5.023,837.437,841.999
416,5.021,837.619,842.135
417,5.018,837.799,842.268
418,5.016,837.976,842.400
419,5.014,838.151,842.530
420,5.011,838.324,842.659
421,5.009,838.495,842.787
422,5.007,838.664,842.912
423,5.005,838.831,843.038
424,5.003,838.996,843.160
425,5.001,839.160,843.282
426,4.998,839.321,843.402
427,4.996,839.480,843.520
428,4.994,839.638,843.638
429,4.992,839.794,843.754
430,4.990,839.948,843.870
431,4.988,840.100,843.982
432,4.986,840.250,844.095
433,4.984,840.399,844.206
434,4.982,840.546,844.315
435,4.980,840.691,844.424
436,4.978,840.835,844.531
437,4.976,840.976,844.637
438,4.974,841.117,844.741
439,4.972,841.255,844.845
440,4.970,841.393,844.947
441,4.968,841.528,845.048
442,4.967,841.661,845.148
443,4.965,841.794,845.247
444,4.963,841.925,845.345
445,4.961,842.054,845.442
446,4.959,842.182,845.537
447,4.957,842.308,845.632
448,4.956,842.433,845.725
449,4.954,842.557,845.818
450,4.952,842.679,845.909
451,4.950,842.799,845.999
452,4.949,842.919,846.088
453,4.947,843.037,846.176
454,4.945,843.153,846.264
455,4.944,843.268,846.350
456,4.942,843.383,846.435
457,4.940,843.495,846.519
458,4.939,843.607,846.602
459,4.937,843.717,846.685
460,4.935,843.826,846.767
461,4.934,843.934,846.847
462,4.932,844.040,846.927
463,4.931,844.145,847.006
464,4.929,844.249,847.084
465,4.927,844.352,847.161
466,4.926,844.454,847.238
467,4.924,844.555,847.312
468,4.923,844.654,847.387
469,4.921,844.753,847.461
470,4.920,844.850,847.534
471,4.918,844.946,847.606
472,4.917,845.041,847.678
473,4.915,845.135,847.748
474,4.914,845.228,847.817
475,4.912,845.321,847.887
476,4.911,845.411,847.955
477,4.910,845.502,848.022
478,4.908,845.590,848.089
479,4.907,845.678,848.155
480,4.905,845.765,848.220
481,4.904,845.851,848.285
482,4.902,845.936,848.348
483,4.901,846.021,848.412
484,4.900,846.104,848.474
485,4.898,846.186,848.536
486,4.897,846.267,848.597
487,4.896,846.348,848.657
488,4.894,846.428,848.717
489,4.893,846.506,848.776
490,4.892,846.584,848.835
491,4.890,846.661,848.892
492,4.889,846.737,848.950
493,4.888,846.813,849.006
494,4.887,846.888,849.062
495,4.885,846.961,849.118
496,4.884,847.035,849.173
497,4.883,847.106,849.226
498,4.882,847.178,849.281
499,4.880,847.249,849.334
500,4.879,847.319,849.386
501,4.878,847.388,849.438
502,4.877,847.456,849.490
503,4.875,847.524,849.540
504,4.874,847.591,849.590
505,4.873,847.656,849.640
506,4.872,847.722,849.689
507,4.871,847.787,849.738
508,4.870,847.851,849.787
509,4.868,847.914,849.834
510,4.867,847.977,849.881
511,4.866,848.039,849.928
512,4.865,848.101,849.974
513,4.864,848.162,850.019
514,4.863,848.221,850.065
515,4.862,848.281,850.110
516,4.860,848.340,850.154
517,4.859,848.398,850.198
518,4.858,848.456,850.242
519,4.857,848.513,850.285
520,4.856,848.570,850.326
521,4.855,848.625,850.368
522,4.854,848.680,850.410
523,4.853,848.735,850.451
524,4.852,848.789,850.492
525,4.851,848.843,850.532
526,4.850,848.895,850.572
527,4.849,848.948,850.612
528,4.848,849.000,850.651
529,4.847,849.051,850.689
530,4.846,849.102,850.728
531,4.845,849.153,850.766
532,4.844,849.203,850.803
533,4.843,849.251,850.840
534,4.842,849.300,850.877
535,4.841,849.348,850.913
536,4.840,849.396,850.949
537,4.839,849.444,850.984
538,4.838,849.490,851.020
539,4.837,849.537,851.055
540,4.836,849.583,851.089
541,4.835,849.628,851.124
542,4.834,849.673,851.157
543,4.833,849.717,851.190
544,4.832,849.761,851.224
545,4.831,849.805,851.257
546,4.830,849.848,851.289
547,4.829,849.891,851.322
548,4.828,849.933,851.353
549,4.827,849.975,851.385
550,4.826,850.015,851.416
551,4.825,850.057,851.447
552,4.825,850.098,851.477
553,4.824,850.138,851.508
554,4.823,850.177,851.538
555,4.822,850.217,851.568
556,4.821,850.256,851.597
557,4.820,850.294,851.626
558,4.819,850.333,851.655
559,4.818,850.370,851.683
560,4.817,850.408,851.711
561,4.817,850.445,851.739
562,4.816,850.482,851.767
563,4.815,850.518,851.795
564,4.814,850.554,851.822
565,4.813,850.590,851.849
566,4.812,850.625,851.875
567,4.812,850.660,851.902
568,4.811,850.695,851.928
569,4.810,850.729,851.954
570,4.809,850.763,851.979
571,4.808,850.797,852.005
572,4.807,850.830,852.030
573,4.807,850.863,852.055
574,4.806,850.896,852.079
575,4.805,850.928,852.104
576,4.804,850.959,852.128
577,4.803,850.992,852.152
578,4.803,851.023,852.175
579,4.802,851.054,852.199
580,4.801,851.085,852.223
581,4.800,851.116,852.246
582,4.800,851.146,852.268
583,4.799,851.176,852.291
584,4.798,851.206,852.313
585,4.797,851.235,852.336
586,4.796,851.263,852.358
587,4.796,851.292,852.379
588,4.795,851.321,852.401
589,4.794,851.349,852.422
590,4.793,851.378,852.443
591,4.793,851.406,852.464
592,4.792,851.433,852.485
593,4.791,851.460,852.506
594,4.791,851.487,852.526
595,4.790,851.514,852.546
596,4.789,851.540,852.566
597,4.788,851.567,852.586
598,4.788,851.593,852.605
599,4.787,851.618,852.625
600,4.786,851.644,852.645
601,4.786,851.669,852.663
602,4.785,851.694,852.683
603,4.784,851.719,852.701
604,4.783,851.744,852.720
605,4.783,851.768,852.738
606,4.782,851.793,852.757
607,4.781,851.816,852.774
608,4.781,851.840,852.793
609,4.780,851.863,852.810
610,4.779,851.887,852.828
611,4.779,851.910,852.846
612,4.778,851.933,852.863
613,4.777,851.956,852.879
614,4.777,851.978,852.897
615,4.776,852.000,852.914
616,4.775,852.022,852.930
617,4.775,852.044,852.947
618,4.774,852.066,852.963
619,4.773,852.087,852.979
620,4.773,852.108,852.996
621,4.772,852.130,853.012
622,4.771,852.151,853.028
623,4.771,852.172,853.043
624,4.770,852.192,853.059
625,4.769,852.212,853.074
626,4.769,852.233,853.090
627,4.768,852.253,853.105
628,4.768,852.272,853.120
629,4.767,852.292,853.135
630,4.766,852.312,853.149
631,4.766,852.331,853.164
632,4.765,852.350,853.178
633,4.765,852.369,853.193
634,4.764,852.388,853.207
635,4.763,852.406,853.221
636,4.763,852.425,853.235
637,4.762,852.443,853.249
638,4.761,852.462,853.263
639,4.761,852.479,853.276
640,4.760,852.497,853.290
641,4.760,852.515,853.303
642,4.759,852.533,853.316
643,4.759,852.550,853.330
644,4.758,852.568,853.343
645,4.757,852.585,853.356
646,4.757,852.601,853.369
647,4.756,852.619,853.381
648,4.756,852.635,853.394
649,4.755,852.652,853.407
650,4.754,852.668,853.419
651,4.754,852.685,853.431
652,4.753,852.701,853.444
653,4.753,852.716,853.456
654,4.752,852.732,853.468
655,4.752,852.749,853.479
656,4.751,852.764,853.492
657,4.751,852.780,853.504
658,4.750,852.795,853.515
659,4.749,852.810,853.527
660,4.749,852.825,853.538
661,4.748,852.840,853.549
662,4.748,852.855,853.560
663,4.747,852.870,853.572
664,4.747,852.884,853.583
665,4.746,852.899,853.594
666,4.746,852.914,853.605
667,4.745,852.928,853.615
668,4.745,852.942,853.626
669,4.744,852.956,853.637
670,4.744,852.970,853.648
671,4.743,852.984,853.658
672,4.742,852.998,853.668
673,4.742,853.011,853.679
674,4.741,853.024,853.689
675,4.741,853.038,853.699
676,4.740,853.051,853.709
677,4.740,853.064,853.719
678,4.739,853.078,853.729
679,4.739,853.090,853.739
680,4.738,853.103,853.748
681,4.738,853.116,853.758
682,4.737,853.128,853.768
683,4.737,853.141,853.778
684,4.736,853.154,853.787
685,4.736,853.167,853.796
686,4.735,853.179,853.805
687,4.735,853.191,853.815
688,4.734,853.203,853.824
689,4.734,853.215,853.833
690,4.733,853.227,853.842
691,4.733,853.239,853.851
692,4.732,853.250,853.860
693,4.732,853.263,853.869
694,4.731,853.274,853.878
695,4.731,853.286,853.886
696,4.730,853.296,853.895
697,4.730,853.308,853.904
698,4.730,853.319,853.912
699,4.729,853.330,853.921
700,4.729,853.341,853.929
701,4.728,853.352,853.937
702,4.728,853.363,853.945
703,4.727,853.374,853.953
704,4.727,853.384,853.962
705,4.726,853.396,853.970
706,4.726,853.406,853.978
707,4.725,853.416,853.985
708,4.725,853.427,853.993
709,4.724,853.437,854.001
710,4.724,853.447,854.010
711,4.724,853.458,854.017
712,4.723,853.468,854.025
713,4.723,853.477,854.032
714,4.722,853.488,854.040
715,4.722,853.497,854.047
716,4.721,853.508,854.055
717,4.721,853.517,854.062
718,4.720,853.527,854.070
719,4.720,853.536,854.077
720,4.719,853.546,854.084
721,4.719,853.556,854.091
722,4.719,853.565,854.098
723,4.718,853.574,854.105
724,4.718,853.583,854.112
725,4.717,853.593,854.119
726,4.717,853.602,854.126
727,4.716,853.611,854.133
728,4.716,853.620,854.140
729,4.716,853.629,854.147
730,4.715,853.638,854.154
731,4.715,853.647,854.160
732,4.714,853.655,854.166
733,4.714,853.664,854.173
734,4.713,853.673,854.180
735,4.713,853.681,854.186
736,4.713,853.690,854.193
737,4.712,853.698,854.199
738,4.712,853.707,854.206
739,4.711,853.715,854.212
740,4.711,853.723,854.218
741,4.711,853.731,854.225
742,4.710,853.739,854.231
743,4.710,853.748,854.237
744,4.709,853.756,854.243
745,4.709,853.764,854.249
746,4.709,853.771,854.256
747,4.708,853.779,854.261
748,4.708,853.787,854.267
749,4.707,853.796,854.273
750,4.707,853.804,854.279
751,4.707,853.811,854.284
752,4.706,853.819,854.290
753,4.706,853.826,854.297
754,4.705,853.834,854.303
755,4.705,853.841,854.308
756,4.705,853.849,854.313
757,4.704,853.856,854.319
758,4.704,853.863,854.325
759,4.703,853.871,854.330
760,4.703,853.878,854.336
761,4.703,853.885,854.341
762,4.702,853.892,854.347
763,4.702,853.899,854.352
