# Time (s),Mass (g),T Back (K),T Front (K)
0,68.400,293.000,293.000
1,68.400,293.000,483.208
2,68.400,293.000,554.864
3,68.399,293.000,603.984
4,68.395,293.000,639.561
5,68.385,293.000,664.597
6,68.366,293.000,682.798
7,68.335,293.000,696.584
8,68.287,293.000,708.094
9,68.216,293.000,717.694
10,68.110,293.000,725.046
11,67.983,293.000,731.513
12,67.846,293.000,737.129
13,67.701,293.000,741.790
14,67.552,293.000,745.936
15,67.400,293.000,749.906
16,67.247,293.000,753.863
17,67.094,293.000,757.921
18,66.941,293.000,762.034
19,66.787,293.000,766.250
20,66.634,293.000,770.420
21,66.481,293.000,774.596
22,66.327,293.000,778.679
23,66.173,293.000,782.658
24,66.019,293.000,786.549
25,65.866,293.000,790.326
26,65.713,293.000,793.989
27,65.560,293.000,797.549
28,65.408,293.000,801.006
29,65.256,293.000,804.358
30,65.105,293.000,807.612
31,64.955,293.000,810.773
32,64.805,293.000,813.841
33,64.656,293.000,816.813
34,64.508,293.000,819.694
35,64.360,293.000,822.494
36,64.214,293.000,825.212
37,64.068,293.000,827.849
38,63.923,293.000,830.400
39,63.779,293.000,832.875
40,63.635,293.000,835.281
41,63.493,293.000,837.615
42,63.351,293.001,839.874
43,63.211,293.001,842.065
44,63.071,293.001,844.193
45,62.932,293.001,846.259
46,62.794,293.002,848.259
47,62.657,293.002,850.202
48,62.520,293.003,852.090
49,62.385,293.003,853.921
50,62.250,293.004,855.698
51,62.117,293.005,857.426
52,61.984,293.007,859.104
53,61.852,293.008,860.735
54,61.721,293.010,862.321
55,61.590,293.012,863.863
56,61.461,293.014,865.363
57,61.332,293.017,866.823
58,61.204,293.020,868.244
59,61.077,293.024,869.629
60,60.951,293.028,870.978
61,60.825,293.033,872.292
62,60.701,293.039,873.573
63,60.577,293.044,874.823
64,60.453,293.051,876.042
65,60.331,293.059,877.232
66,60.209,293.067,878.393
67,60.088,293.077,879.528
68,59.968,293.086,880.637
69,59.848,293.098,881.720
70,59.729,293.111,882.778
71,59.611,293.125,883.814
72,59.493,293.140,884.827
73,59.376,293.157,885.818
74,59.260,293.174,886.789
75,59.144,293.194,887.738
76,59.029,293.215,888.668
77,58.914,293.237,889.579
78,58.801,293.262,890.471
79,58.687,293.289,891.347
80,58.575,293.317,892.205
81,58.463,293.348,893.046
82,58.351,293.381,893.871
83,58.240,293.415,894.680
84,58.130,293.452,895.474
85,58.020,293.492,896.254
86,57.911,293.534,897.019
87,57.802,293.578,897.771
88,57.694,293.626,898.509
89,57.586,293.676,899.234
90,57.479,293.728,899.947
91,57.372,293.785,900.647
92,57.266,293.843,901.334
93,57.160,293.905,902.011
94,57.055,293.971,902.677
95,56.950,294.039,903.331
96,56.845,294.111,903.974
97,56.742,294.187,904.607
98,56.638,294.265,905.230
99,56.535,294.348,905.843
100,56.433,294.434,906.446
101,56.331,294.525,907.040
102,56.229,294.619,907.625
103,56.128,294.716,908.201
104,56.027,294.819,908.769
105,55.927,294.925,909.328
106,55.827,295.035,909.877
107,55.727,295.150,910.420
108,55.628,295.269,910.954
109,55.529,295.393,911.481
110,55.431,295.521,912.000
111,55.333,295.653,912.512
112,55.235,295.790,913.017
113,55.138,295.932,913.514
114,55.041,296.079,914.005
115,54.944,296.230,914.489
116,54.848,296.387,914.967
117,54.753,296.548,915.437
118,54.657,296.714,915.903
119,54.562,296.886,916.360
120,54.467,297.063,916.814
121,54.373,297.244,917.260
122,54.279,297.432,917.701
123,54.185,297.624,918.136
124,54.092,297.822,918.566
125,53.999,298.025,918.990
126,53.906,298.233,919.409
127,53.814,298.448,919.823
128,53.722,298.667,920.231
129,53.630,298.892,920.635
130,53.538,299.123,921.034
131,53.447,299.359,921.429
132,53.356,299.601,921.818
133,53.266,299.849,922.203
134,53.175,300.102,922.583
135,53.085,300.362,922.959
136,52.996,300.627,923.330
137,52.906,300.898,923.698
138,52.817,301.175,924.061
139,52.728,301.457,924.420
140,52.640,301.746,924.775
141,52.552,302.041,925.125
142,52.464,302.341,925.472
143,52.376,302.648,925.815
144,52.288,302.960,926.155
145,52.201,303.278,926.490
146,52.114,303.603,926.822
147,52.028,303.933,927.151
148,51.941,304.270,927.476
149,51.855,304.613,927.797
150,51.769,304.962,928.116
151,51.684,305.317,928.431
152,51.598,305.678,928.742
153,51.513,306.045,929.050
154,51.428,306.418,929.356
155,51.344,306.798,929.659
156,51.259,307.183,929.957
157,51.175,307.575,930.253
158,51.091,307.973,930.547
159,51.007,308.376,930.837
160,50.924,308.786,931.125
161,50.840,309.202,931.409
162,50.757,309.625,931.691
163,50.675,310.053,931.970
164,50.592,310.487,932.247
165,50.510,310.927,932.520
166,50.427,311.374,932.791
167,50.346,311.827,933.060
168,50.264,312.286,933.326
169,50.182,312.751,933.590
170,50.101,313.221,933.851
171,50.020,313.698,934.110
172,49.939,314.181,934.367
173,49.858,314.670,934.621
174,49.778,315.165,934.873
175,49.698,315.665,935.122
176,49.617,316.172,935.370
177,49.538,316.685,935.615
178,49.458,317.204,935.857
179,49.378,317.728,936.098
180,49.299,318.259,936.337
181,49.220,318.795,936.574
182,49.141,319.337,936.808
183,49.062,319.885,937.041
184,48.984,320.440,937.272
185,48.905,320.999,937.501
186,48.827,321.564,937.727
187,48.749,322.136,937.952
188,48.671,322.712,938.176
189,48.594,323.295,938.396
190,48.516,323.883,938.616
191,48.439,324.477,938.833
192,48.362,325.076,939.049
193,48.285,325.682,939.263
194,48.208,326.293,939.476
195,48.131,326.908,939.686
196,48.055,327.530,939.895
197,47.979,328.157,940.102
198,47.902,328.790,940.308
199,47.826,329.428,940.512
200,47.751,330.072,940.715
201,47.675,330.721,940.915
202,47.599,331.375,941.115
203,47.524,332.034,941.313
204,47.449,332.699,941.509
205,47.374,333.369,941.704
206,47.299,334.044,941.897
207,47.224,334.725,942.089
208,47.150,335.411,942.279
209,47.075,336.101,942.469
210,47.001,336.797,942.656
211,46.927,337.498,942.843
212,46.853,338.204,943.027
213,46.779,338.915,943.211
214,46.705,339.631,943.393
215,46.631,340.352,943.574
216,46.558,341.077,943.754
217,46.484,341.808,943.932
218,46.411,342.544,944.109
219,46.338,343.284,944.285
220,46.265,344.029,944.460
221,46.192,344.779,944.633
222,46.119,345.533,944.805
223,46.047,346.292,944.976
224,45.974,347.056,945.146
225,45.902,347.824,945.315
226,45.830,348.598,945.482
227,45.758,349.375,945.649
228,45.686,350.157,945.814
229,45.614,350.944,945.978
230,45.542,351.735,946.141
231,45.470,352.531,946.303
232,45.399,353.329,946.464
233,45.327,354.135,946.624
234,45.256,354.942,946.783
235,45.184,355.755,946.941
236,45.113,356.572,947.097
237,45.042,357.393,947.253
238,44.971,358.218,947.407
239,44.900,359.048,947.561
240,44.830,359.882,947.714
241,44.759,360.718,947.866
242,44.688,361.560,948.016
243,44.618,362.406,948.167
244,44.548,363.256,948.315
245,44.477,364.110,948.464
246,44.407,364.966,948.611
247,44.337,365.828,948.757
248,44.267,366.694,948.903
249,44.197,367.562,949.047
250,44.127,368.434,949.191
251,44.057,369.311,949.334
252,43.988,370.191,949.475
253,43.918,371.075,949.617
254,43.848,371.962,949.756
255,43.779,372.853,949.896
256,43.710,373.747,950.034
257,43.640,374.645,950.173
258,43.571,375.546,950.310
259,43.502,376.452,950.446
260,43.433,377.360,950.581
261,43.364,378.271,950.716
262,43.295,379.187,950.850
263,43.226,380.106,950.983
264,43.157,381.027,951.116
265,43.088,381.952,951.247
266,43.019,382.880,951.378
267,42.950,383.812,951.509
268,42.882,384.746,951.638
269,42.813,385.684,951.767
270,42.745,386.624,951.895
271,42.676,387.568,952.023
272,42.608,388.515,952.150
273,42.539,389.464,952.276
274,42.471,390.416,952.402
275,42.403,391.373,952.526
276,42.334,392.331,952.650
277,42.266,393.293,952.773
278,42.198,394.257,952.896
279,42.130,395.224,953.019
280,42.062,396.194,953.141
281,41.994,397.165,953.262
282,41.925,398.141,953.382
283,41.857,399.119,953.501
284,41.789,400.098,953.620
285,41.721,401.081,953.739
286,41.653,402.067,953.857
287,41.586,403.055,953.975
288,41.518,404.045,954.091
289,41.450,405.038,954.207
290,41.382,406.033,954.322
291,41.314,407.030,954.437
292,41.246,408.031,954.552
293,41.178,409.033,954.666
294,41.111,410.037,954.779
295,41.043,411.044,954.892
296,40.975,412.053,955.004
297,40.907,413.064,955.116
298,40.839,414.077,955.227
299,40.772,415.092,955.338
300,40.704,416.109,955.447
301,40.636,417.129,955.557
302,40.568,418.150,955.667
303,40.500,419.173,955.776
304,40.433,420.198,955.883
305,40.365,421.226,955.991
306,40.297,422.254,956.098
307,40.229,423.285,956.205
308,40.161,424.318,956.310
309,40.093,425.351,956.416
310,40.026,426.387,956.521
311,39.958,427.425,956.626
312,39.890,428.463,956.730
313,39.822,429.503,956.833
314,39.754,430.546,956.937
315,39.686,431.589,957.039
316,39.618,432.634,957.141
317,39.550,433.680,957.243
318,39.482,434.728,957.345
319,39.414,435.776,957.446
320,39.345,436.827,957.547
321,39.277,437.878,957.646
322,39.209,438.930,957.746
323,39.141,439.984,957.845
324,39.072,441.038,957.944
325,39.004,442.094,958.042
326,38.935,443.150,958.139
327,38.867,444.207,958.237
328,38.798,445.266,958.334
329,38.730,446.324,958.431
330,38.661,447.384,958.527
331,38.592,448.444,958.622
332,38.524,449.505,958.718
333,38.455,450.566,958.813
334,38.386,451.629,958.907
335,38.317,452.690,959.001
336,38.248,453.753,959.095
337,38.179,454.817,959.188
338,38.109,455.880,959.281
339,38.040,456.943,959.373
340,37.971,458.007,959.465
341,37.901,459.070,959.556
342,37.832,460.132,959.648
343,37.762,461.196,959.739
344,37.692,462.258,959.829
345,37.623,463.321,959.919
346,37.553,464.384,960.009
347,37.483,465.445,960.098
348,37.413,466.507,960.187
349,37.342,467.567,960.275
350,37.272,468.627,960.363
351,37.202,469.686,960.451
352,37.131,470.744,960.538
353,37.060,471.801,960.625
354,36.990,472.856,960.712
355,36.919,473.911,960.798
356,36.848,474.964,960.884
357,36.776,476.016,960.969
358,36.705,477.067,961.055
359,36.634,478.115,961.139
360,36.562,479.163,961.224
361,36.491,480.208,961.307
362,36.419,481.250,961.392
363,36.347,482.293,961.474
364,36.275,483.332,961.557
365,36.203,484.369,961.640
366,36.130,485.403,961.722
367,36.058,486.436,961.804
368,35.985,487.465,961.885
369,35.912,488.493,961.966
370,35.839,489.517,962.048
371,35.766,490.538,962.128
372,35.693,491.556,962.208
373,35.619,492.572,962.288
374,35.546,493.585,962.368
375,35.472,494.594,962.447
376,35.398,495.600,962.526
377,35.324,496.602,962.604
378,35.249,497.602,962.682
379,35.175,498.597,962.760
380,35.100,499.590,962.838
381,35.025,500.578,962.915
382,34.950,501.563,962.992
383,34.875,502.544,963.068
384,34.800,503.522,963.145
385,34.724,504.496,963.221
386,34.649,505.466,963.297
387,34.573,506.433,963.372
388,34.496,507.396,963.448
389,34.420,508.355,963.522
390,34.344,509.311,963.598
391,34.267,510.262,963.672
392,34.190,511.211,963.747
393,34.113,512.156,963.821
394,34.036,513.097,963.895
395,33.958,514.035,963.968
396,33.881,514.970,964.042
397,33.803,515.902,964.115
398,33.725,516.830,964.188
399,33.647,517.756,964.260
400,33.568,518.678,964.333
401,33.490,519.599,964.406
402,33.411,520.516,964.478
403,33.332,521.431,964.550
404,33.253,522.344,964.622
405,33.173,523.255,964.694
406,33.094,524.164,964.766
407,33.014,525.072,964.837
408,32.934,525.977,964.908
409,32.854,526.882,964.979
410,32.774,527.785,965.051
411,32.693,528.688,965.121
412,32.612,529.589,965.192
413,32.532,530.490,965.262
414,32.450,531.390,965.333
415,32.369,532.290,965.403
416,32.288,533.190,965.474
417,32.206,534.090,965.543
418,32.124,534.992,965.613
419,32.042,535.892,965.683
420,31.960,536.794,965.752
421,31.877,537.696,965.821
422,31.795,538.600,965.891
423,31.712,539.505,965.960
424,31.629,540.410,966.029
425,31.545,541.318,966.097
426,31.462,542.226,966.166
427,31.378,543.136,966.234
428,31.294,544.048,966.302
429,31.210,544.963,966.370
430,31.125,545.879,966.438
431,31.041,546.797,966.504
432,30.956,547.717,966.572
433,30.871,548.639,966.639
434,30.785,549.564,966.706
435,30.700,550.490,966.772
436,30.614,551.420,966.839
437,30.528,552.352,966.904
438,30.441,553.286,966.970
439,30.355,554.222,967.035
440,30.268,555.162,967.101
441,30.181,556.102,967.165
442,30.093,557.047,967.229
443,30.005,557.993,967.294
444,29.917,558.942,967.358
445,29.829,559.893,967.421
446,29.740,560.847,967.485
447,29.651,561.803,967.547
448,29.561,562.760,967.610
449,29.472,563.721,967.671
450,29.381,564.684,967.733
451,29.291,565.648,967.794
452,29.200,566.614,967.855
453,29.109,567.583,967.916
454,29.017,568.553,967.975
455,28.925,569.525,968.035
456,28.833,570.498,968.094
457,28.740,571.473,968.153
458,28.647,572.449,968.211
459,28.553,573.428,968.269
460,28.459,574.406,968.327
461,28.364,575.386,968.384
462,28.269,576.367,968.440
463,28.173,577.348,968.497
464,28.077,578.330,968.552
465,27.981,579.312,968.607
466,27.883,580.295,968.663
467,27.786,581.278,968.717
468,27.688,582.261,968.771
469,27.589,583.244,968.825
470,27.490,584.227,968.879
471,27.390,585.209,968.932
472,27.290,586.190,968.984
473,27.189,587.170,969.037
474,27.087,588.149,969.089
475,26.986,589.128,969.140
476,26.883,590.105,969.192
477,26.780,591.080,969.244
478,26.676,592.053,969.295
479,26.572,593.026,969.346
480,26.467,593.995,969.397
481,26.362,594.962,969.448
482,26.256,595.927,969.498
483,26.149,596.888,969.550
484,26.042,597.847,969.601
485,25.934,598.803,969.652
486,25.826,599.754,969.703
487,25.718,600.703,969.755
488,25.608,601.648,969.807
489,25.498,602.589,969.859
490,25.388,603.526,969.912
491,25.277,604.458,969.965
492,25.166,605.385,970.019
493,25.055,606.308,970.073
494,24.942,607.226,970.128
495,24.830,608.138,970.184
496,24.717,609.044,970.241
497,24.603,609.946,970.298
498,24.490,610.840,970.356
499,24.376,611.730,970.415
500,24.261,612.612,970.476
501,24.147,613.488,970.537
502,24.032,614.357,970.599
503,23.917,615.219,970.664
504,23.801,616.074,970.729
505,23.686,616.921,970.795
506,23.570,617.761,970.863
507,23.455,618.593,970.931
508,23.339,619.419,971.002
509,23.223,620.235,971.073
510,23.107,621.043,971.147
511,22.991,621.843,971.222
512,22.875,622.636,971.298
513,22.759,623.419,971.375
514,22.643,624.194,971.455
515,22.528,624.961,971.536
516,22.412,625.720,971.618
517,22.297,626.470,971.701
518,22.182,627.211,971.787
519,22.067,627.944,971.873
520,21.952,628.669,971.961
521,21.837,629.386,972.050
522,21.723,630.095,972.141
523,21.609,630.796,972.233
524,21.495,631.490,972.326
525,21.382,632.176,972.421
526,21.269,632.856,972.516
527,21.156,633.528,972.613
528,21.044,634.194,972.711
529,20.932,634.854,972.810
530,20.821,635.508,972.910
531,20.709,636.156,973.011
532,20.599,636.799,973.114
533,20.489,637.438,973.216
534,20.379,638.072,973.320
535,20.269,638.703,973.425
536,20.160,639.330,973.531
537,20.052,639.954,973.637
538,19.944,640.575,973.744
539,19.837,641.195,973.851
540,19.730,641.813,973.959
541,19.623,642.429,974.068
542,19.517,643.046,974.178
543,19.412,643.661,974.288
544,19.307,644.278,974.398
545,19.202,644.895,974.509
546,19.098,645.513,974.621
547,18.994,646.133,974.732
548,18.891,646.755,974.844
549,18.789,647.380,974.957
550,18.687,648.008,975.070
551,18.585,648.640,975.183
552,18.484,649.276,975.297
553,18.384,649.916,975.411
554,18.284,650.562,975.526
555,18.184,651.213,975.640
556,18.085,651.869,975.755
557,17.986,652.532,975.871
558,17.888,653.203,975.987
559,17.791,653.881,976.102
560,17.694,654.567,976.219
561,17.597,655.261,976.336
562,17.501,655.965,976.454
563,17.406,656.677,976.572
564,17.310,657.401,976.689
565,17.216,658.135,976.809
566,17.122,658.881,976.928
567,17.028,659.638,977.048
568,16.935,660.408,977.169
569,16.843,661.192,977.290
570,16.751,661.991,977.412
571,16.660,662.802,977.535
572,16.569,663.631,977.659
573,16.479,664.476,977.784
574,16.389,665.338,977.909
575,16.300,666.219,978.036
576,16.212,667.119,978.164
577,16.124,668.040,978.293
578,16.037,668.982,978.424
579,15.951,669.947,978.556
580,15.865,670.935,978.689
581,15.780,671.950,978.824
582,15.696,672.990,978.960
583,15.612,674.060,979.098
584,15.529,675.159,979.238
585,15.447,676.289,979.381
586,15.366,677.453,979.525
587,15.286,678.652,979.671
588,15.207,679.889,979.820
589,15.129,681.166,979.971
590,15.052,682.484,980.124
591,14.976,683.847,980.281
592,14.901,685.258,980.441
593,14.827,686.719,980.603
594,14.755,688.232,980.769
595,14.683,689.799,980.938
596,14.614,691.424,981.111
597,14.545,693.112,981.287
598,14.478,694.866,981.468
599,14.413,696.688,981.652
600,14.349,698.587,981.842
601,14.288,700.567,982.036
602,14.228,702.628,982.234
603,14.170,704.777,982.438
604,14.114,707.016,982.647
605,14.061,709.353,982.862
606,14.010,711.788,983.083
607,13.961,714.321,983.308
608,13.914,716.955,983.539
609,13.870,719.687,983.776
610,13.829,722.516,984.017
611,13.790,725.433,984.264
612,13.754,728.428,984.514
613,13.720,731.488,984.769
614,13.688,734.599,985.027
615,13.658,737.735,985.287
616,13.630,740.881,985.548
617,13.603,744.009,985.810
618,13.577,747.105,986.073
619,13.552,750.151,986.336
620,13.528,753.136,986.598
621,13.505,756.056,986.860
622,13.481,758.904,987.123
623,13.458,761.691,987.385
624,13.435,764.416,987.648
625,13.412,767.092,987.912
626,13.389,769.722,988.175
627,13.366,772.314,988.440
628,13.344,774.873,988.706
629,13.321,777.407,988.971
630,13.299,779.916,989.237
631,13.276,782.405,989.503
632,13.254,784.878,989.769
633,13.232,787.339,990.034
634,13.211,789.785,990.298
635,13.189,792.223,990.563
636,13.168,794.651,990.827
637,13.147,797.071,991.089
638,13.127,799.483,991.350
639,13.107,801.891,991.610
640,13.087,804.293,991.869
641,13.067,806.689,992.127
642,13.047,809.082,992.383
643,13.028,811.467,992.639
644,13.009,813.850,992.894
645,12.991,816.227,993.148
646,12.973,818.598,993.400
647,12.955,820.963,993.651
648,12.937,823.324,993.901
649,12.920,825.676,994.150
650,12.903,828.022,994.399
651,12.887,830.359,994.645
652,12.870,832.687,994.891
653,12.854,835.007,995.136
654,12.838,837.316,995.379
655,12.823,839.615,995.622
656,12.808,841.902,995.865
657,12.793,844.176,996.105
658,12.778,846.438,996.345
659,12.764,848.685,996.583
660,12.750,850.917,996.820
661,12.736,853.135,997.057
662,12.723,855.335,997.292
663,12.709,857.520,997.526
664,12.696,859.687,997.759
665,12.683,861.837,997.990
666,12.671,863.967,998.220
667,12.658,866.079,998.448
668,12.646,868.174,998.676
669,12.634,870.245,998.902
670,12.622,872.299,999.126
671,12.611,874.332,999.350
672,12.599,876.343,999.570
673,12.588,878.334,999.790
674,12.577,880.302,1000.008
675,12.566,882.250,1000.221
676,12.556,884.177,1000.435
677,12.545,886.080,1000.648
678,12.535,887.963,1000.862
679,12.525,889.824,1001.076
680,12.514,891.663,1001.280
681,12.505,893.480,1001.483
682,12.495,895.274,1001.687
683,12.485,897.048,1001.891
684,12.476,898.798,1002.089
685,12.466,900.527,1002.287
686,12.457,902.235,1002.483
687,12.448,903.920,1002.674
688,12.439,905.585,1002.862
689,12.431,907.226,1003.054
690,12.422,908.849,1003.239
691,12.413,910.449,1003.427
692,12.405,912.028,1003.606
693,12.397,913.586,1003.794
694,12.388,915.122,1003.970
695,12.380,916.640,1004.141
696,12.372,918.135,1004.319
697,12.364,919.612,1004.488
698,12.357,921.067,1004.661
699,12.349,922.503,1004.825
700,12.341,923.919,1004.993
701,12.334,925.317,1005.160
702,12.327,926.695,1005.321
703,12.319,928.052,1005.479
704,12.312,929.391,1005.638
705,12.305,930.712,1005.791
706,12.298,932.013,1005.944
707,12.291,933.297,1006.097
708,12.284,934.562,1006.240
709,12.278,935.809,1006.393
710,12.271,937.038,1006.536
711,12.265,938.249,1006.679
712,12.258,939.443,1006.823
713,12.252,940.620,1006.956
714,12.245,941.780,1007.099
715,12.239,942.922,1007.232
716,12.233,944.048,1007.365
717,12.227,945.157,1007.498
718,12.221,946.251,1007.621
719,12.215,947.328,1007.755
720,12.209,948.389,1007.878
721,12.203,949.435,1008.003
722,12.198,950.464,1008.124
723,12.192,951.479,1008.248
724,12.187,952.478,1008.366
725,12.181,953.462,1008.483
726,12.176,954.431,1008.598
727,12.170,955.386,1008.708
728,12.165,956.327,1008.824
729,12.160,957.254,1008.933
730,12.155,958.165,1009.041
731,12.149,959.064,1009.148
732,12.144,959.948,1009.256
733,12.139,960.819,1009.354
734,12.134,961.676,1009.461
735,12.130,962.521,1009.559
736,12.125,963.352,1009.656
737,12.120,964.171,1009.754
738,12.115,964.976,1009.852
739,12.111,965.770,1009.946
