# Time (s),Mass (g),T Back (K),T Front (K)
0,68.400,293.000,293.000
1,68.400,293.000,467.763
2,68.400,293.000,534.494
3,68.398,293.000,579.770
4,68.391,293.000,612.526
5,68.379,293.000,637.135
6,68.362,293.000,657.019
7,68.336,293.000,673.778
8,68.300,293.000,688.980
9,68.251,293.000,702.652
10,68.183,293.000,714.392
11,68.089,293.000,723.444
12,67.977,293.000,731.296
13,67.853,293.000,738.438
14,67.718,293.000,744.774
15,67.574,293.000,750.601
16,67.424,293.000,756.210
17,67.271,293.000,761.864
18,67.118,293.000,767.545
19,66.963,293.000,772.968
20,66.808,293.000,778.174
21,66.651,293.000,783.102
22,66.496,293.000,787.840
23,66.340,293.000,792.305
24,66.185,293.000,796.613
25,66.030,293.000,800.693
26,65.876,293.000,804.625
27,65.722,293.000,808.343
28,65.570,293.000,811.932
29,65.419,293.000,815.345
30,65.268,293.000,818.642
31,65.119,293.000,821.780
32,64.970,293.000,824.809
33,64.823,293.000,827.701
34,64.676,293.001,830.498
35,64.531,293.001,833.181
36,64.387,293.001,835.762
37,64.244,293.001,838.251
38,64.101,293.002,840.646
39,63.960,293.003,842.968
40,63.820,293.003,845.193
41,63.681,293.004,847.355
42,63.543,293.006,849.436
43,63.406,293.008,851.454
44,63.270,293.009,853.406
45,63.135,293.012,855.292
46,63.001,293.015,857.127
47,62.868,293.018,858.894
48,62.736,293.022,860.620
49,62.605,293.028,862.287
50,62.474,293.033,863.905
51,62.345,293.039,865.483
52,62.216,293.046,867.008
53,62.089,293.055,868.498
54,61.962,293.065,869.941
55,61.836,293.076,871.347
56,61.710,293.088,872.719
57,61.586,293.102,874.049
58,61.462,293.117,875.350
59,61.340,293.135,876.618
60,61.218,293.154,877.852
61,61.096,293.174,879.057
62,60.976,293.198,880.230
63,60.856,293.223,881.375
64,60.737,293.251,882.497
65,60.618,293.282,883.591
66,60.500,293.315,884.658
67,60.383,293.350,885.704
68,60.267,293.389,886.720
69,60.151,293.431,887.720
70,60.036,293.476,888.699
71,59.922,293.525,889.653
72,59.808,293.576,890.589
73,59.695,293.632,891.505
74,59.582,293.691,892.399
75,59.470,293.754,893.279
76,59.358,293.821,894.140
77,59.248,293.892,894.982
78,59.137,293.968,895.811
79,59.028,294.048,896.621
80,58.918,294.133,897.416
81,58.810,294.221,898.196
82,58.702,294.315,898.961
83,58.594,294.414,899.711
84,58.487,294.518,900.448
85,58.381,294.627,901.173
86,58.275,294.741,901.884
87,58.169,294.861,902.581
88,58.064,294.986,903.268
89,57.959,295.116,903.942
90,57.855,295.252,904.604
91,57.752,295.394,905.256
92,57.649,295.542,905.896
93,57.546,295.695,906.525
94,57.444,295.855,907.144
95,57.342,296.021,907.753
96,57.240,296.193,908.352
97,57.140,296.371,908.941
98,57.039,296.556,909.522
99,56.939,296.747,910.093
100,56.839,296.943,910.655
101,56.740,297.147,911.209
102,56.641,297.358,911.754
103,56.543,297.575,912.290
104,56.445,297.799,912.819
105,56.347,298.029,913.341
106,56.250,298.267,913.853
107,56.153,298.511,914.359
108,56.056,298.763,914.858
109,55.960,299.021,915.349
110,55.864,299.286,915.833
111,55.769,299.558,916.311
112,55.674,299.837,916.783
113,55.579,300.123,917.248
114,55.485,300.416,917.705
115,55.391,300.716,918.158
116,55.297,301.024,918.603
117,55.204,301.338,919.043
118,55.111,301.660,919.477
119,55.018,301.989,919.906
120,54.926,302.325,920.329
121,54.834,302.668,920.746
122,54.742,303.019,921.159
123,54.651,303.377,921.565
124,54.560,303.742,921.967
125,54.469,304.114,922.363
126,54.379,304.493,922.755
127,54.289,304.880,923.143
128,54.199,305.273,923.525
129,54.109,305.674,923.903
130,54.020,306.083,924.276
131,53.931,306.498,924.645
132,53.843,306.920,925.009
133,53.754,307.350,925.369
134,53.666,307.786,925.726
135,53.578,308.230,926.078
136,53.491,308.681,926.425
137,53.403,309.138,926.769
138,53.316,309.603,927.109
139,53.230,310.074,927.444
140,53.143,310.554,927.777
141,53.057,311.039,928.106
142,52.971,311.531,928.431
143,52.885,312.031,928.753
144,52.800,312.537,929.071
145,52.715,313.051,929.386
146,52.630,313.570,929.697
147,52.545,314.096,930.005
148,52.461,314.630,930.309
149,52.376,315.170,930.611
150,52.292,315.716,930.910
151,52.209,316.269,931.205
152,52.125,316.829,931.498
153,52.042,317.395,931.787
154,51.959,317.968,932.073
155,51.876,318.547,932.357
156,51.793,319.133,932.638
157,51.711,319.724,932.915
158,51.629,320.323,933.191
159,51.547,320.927,933.464
160,51.465,321.537,933.733
161,51.384,322.154,934.000
162,51.302,322.777,934.265
163,51.221,323.406,934.527
164,51.140,324.041,934.787
165,51.060,324.681,935.045
166,50.979,325.329,935.299
167,50.899,325.981,935.552
168,50.819,326.639,935.802
169,50.739,327.304,936.050
170,50.659,327.974,936.296
171,50.579,328.649,936.539
172,50.500,329.330,936.780
173,50.421,330.017,937.019
174,50.342,330.709,937.257
175,50.263,331.407,937.491
176,50.185,332.110,937.723
177,50.106,332.819,937.954
178,50.028,333.533,938.183
179,49.950,334.252,938.409
180,49.872,334.976,938.634
181,49.794,335.705,938.857
182,49.717,336.440,939.078
183,49.639,337.179,939.297
184,49.562,337.924,939.515
185,49.485,338.674,939.730
186,49.408,339.428,939.943
187,49.332,340.187,940.155
188,49.255,340.951,940.365
189,49.179,341.719,940.574
190,49.102,342.493,940.781
191,49.026,343.271,940.986
192,48.950,344.054,941.189
193,48.875,344.840,941.391
194,48.799,345.631,941.591
195,48.723,346.428,941.790
196,48.648,347.228,941.987
197,48.573,348.033,942.183
198,48.498,348.842,942.376
199,48.423,349.654,942.568
200,48.348,350.472,942.760
201,48.273,351.293,942.949
202,48.199,352.117,943.137
203,48.124,352.947,943.324
204,48.050,353.780,943.509
205,47.976,354.617,943.693
206,47.902,355.457,943.875
207,47.828,356.302,944.057
208,47.754,357.150,944.237
209,47.680,358.002,944.416
210,47.607,358.857,944.592
211,47.533,359.716,944.768
212,47.460,360.578,944.943
213,47.387,361.443,945.116
214,47.314,362.313,945.289
215,47.241,363.185,945.460
216,47.168,364.060,945.629
217,47.095,364.938,945.797
218,47.022,365.820,945.964
219,46.950,366.706,946.131
220,46.877,367.593,946.296
221,46.805,368.483,946.460
222,46.733,369.377,946.623
223,46.661,370.274,946.784
224,46.589,371.172,946.944
225,46.517,372.074,947.104
226,46.445,372.978,947.262
227,46.373,373.886,947.420
228,46.301,374.795,947.576
229,46.229,375.707,947.731
230,46.158,376.620,947.885
231,46.086,377.537,948.038
232,46.015,378.456,948.191
233,45.944,379.377,948.341
234,45.872,380.299,948.492
235,45.801,381.224,948.641
236,45.730,382.151,948.789
237,45.659,383.080,948.936
238,45.588,384.010,949.083
239,45.517,384.942,949.228
240,45.446,385.876,949.373
241,45.376,386.812,949.516
242,45.305,387.748,949.659
243,45.234,388.687,949.801
244,45.164,389.627,949.942
245,45.093,390.568,950.082
246,45.023,391.511,950.221
247,44.952,392.454,950.360
248,44.882,393.398,950.497
249,44.812,394.342,950.634
250,44.741,395.288,950.771
251,44.671,396.235,950.905
252,44.601,397.182,951.040
253,44.531,398.130,951.173
254,44.461,399.078,951.306
255,44.391,400.027,951.437
256,44.321,400.975,951.569
257,44.251,401.925,951.699
258,44.181,402.874,951.828
259,44.111,403.823,951.958
260,44.041,404.772,952.086
261,43.971,405.720,952.213
262,43.901,406.668,952.339
263,43.832,407.616,952.466
264,43.762,408.563,952.590
265,43.692,409.509,952.715
266,43.622,410.454,952.839
267,43.553,411.398,952.962
268,43.483,412.341,953.085
269,43.413,413.283,953.206
270,43.344,414.223,953.327
271,43.274,415.162,953.448
272,43.204,416.098,953.567
273,43.135,417.034,953.686
274,43.065,417.967,953.804
275,42.995,418.898,953.922
276,42.926,419.827,954.039
277,42.856,420.753,954.156
278,42.786,421.677,954.271
279,42.717,422.598,954.386
280,42.647,423.516,954.501
281,42.578,424.432,954.615
282,42.508,425.343,954.728
283,42.438,426.252,954.840
284,42.369,427.157,954.952
285,42.299,428.058,955.064
286,42.229,428.956,955.174
287,42.160,429.849,955.285
288,42.090,430.740,955.394
289,42.020,431.625,955.504
290,41.950,432.506,955.612
291,41.881,433.382,955.720
292,41.811,434.254,955.828
293,41.741,435.121,955.934
294,41.671,435.982,956.040
295,41.601,436.839,956.147
296,41.531,437.691,956.252
297,41.461,438.537,956.356
298,41.392,439.378,956.461
299,41.322,440.213,956.564
300,41.252,441.043,956.667
301,41.181,441.866,956.770
302,41.111,442.684,956.873
303,41.041,443.497,956.974
304,40.971,444.303,957.076
305,40.901,445.103,957.176
306,40.831,445.897,957.276
307,40.760,446.686,957.376
308,40.690,447.468,957.475
309,40.620,448.244,957.574
310,40.549,449.014,957.672
311,40.479,449.778,957.771
312,40.409,450.536,957.869
313,40.338,451.288,957.966
314,40.268,452.034,958.063
315,40.197,452.775,958.159
316,40.126,453.510,958.254
317,40.056,454.238,958.350
318,39.985,454.962,958.445
319,39.914,455.680,958.540
320,39.844,456.394,958.634
321,39.773,457.102,958.729
322,39.702,457.804,958.822
323,39.631,458.503,958.916
324,39.560,459.196,959.009
325,39.489,459.885,959.101
326,39.418,460.570,959.194
327,39.347,461.251,959.286
328,39.276,461.928,959.377
329,39.205,462.602,959.468
330,39.134,463.272,959.560
331,39.062,463.939,959.650
332,38.991,464.603,959.740
333,38.920,465.265,959.831
334,38.848,465.924,959.920
335,38.777,466.581,960.009
336,38.706,467.235,960.099
337,38.634,467.889,960.187
338,38.563,468.542,960.276
339,38.491,469.192,960.364
340,38.420,469.843,960.452
341,38.348,470.492,960.540
342,38.276,471.141,960.627
343,38.205,471.789,960.714
344,38.133,472.438,960.801
345,38.061,473.087,960.887
346,37.990,473.737,960.973
347,37.918,474.388,961.059
348,37.846,475.039,961.145
349,37.774,475.692,961.231
350,37.702,476.346,961.315
351,37.630,477.002,961.400
352,37.558,477.659,961.484
353,37.486,478.320,961.568
354,37.414,478.982,961.652
355,37.342,479.647,961.736
356,37.270,480.313,961.819
357,37.198,480.984,961.903
358,37.125,481.657,961.986
359,37.053,482.333,962.068
360,36.981,483.013,962.150
361,36.908,483.696,962.232
362,36.836,484.383,962.313
363,36.763,485.074,962.395
364,36.691,485.769,962.476
365,36.618,486.469,962.556
366,36.546,487.171,962.637
367,36.473,487.880,962.717
368,36.400,488.591,962.797
369,36.328,489.309,962.877
370,36.255,490.031,962.955
371,36.182,490.757,963.035
372,36.109,491.489,963.113
373,36.036,492.227,963.192
374,35.963,492.969,963.269
375,35.890,493.716,963.347
376,35.817,494.469,963.424
377,35.743,495.228,963.502
378,35.670,495.992,963.578
379,35.597,496.762,963.655
380,35.523,497.538,963.731
381,35.449,498.319,963.807
382,35.376,499.107,963.882
383,35.302,499.901,963.957
384,35.228,500.700,964.032
385,35.154,501.506,964.106
386,35.080,502.318,964.180
387,35.006,503.136,964.254
388,34.932,503.962,964.327
389,34.858,504.793,964.400
390,34.783,505.631,964.473
391,34.709,506.474,964.545
392,34.634,507.325,964.617
393,34.559,508.182,964.689
394,34.484,509.046,964.760
395,34.409,509.917,964.831
396,34.334,510.794,964.901
397,34.259,511.678,964.971
398,34.183,512.569,965.041
399,34.108,513.466,965.109
400,34.032,514.370,965.178
401,33.956,515.282,965.247
402,33.880,516.200,965.315
403,33.803,517.125,965.382
404,33.727,518.057,965.449
405,33.650,518.995,965.516
406,33.574,519.942,965.582
407,33.497,520.893,965.649
408,33.419,521.854,965.714
409,33.342,522.820,965.779
410,33.264,523.793,965.844
411,33.187,524.773,965.907
412,33.109,525.761,965.971
413,33.030,526.756,966.035
414,32.952,527.757,966.097
415,32.873,528.765,966.159
416,32.794,529.779,966.221
417,32.715,530.802,966.282
418,32.635,531.829,966.343
419,32.555,532.865,966.403
420,32.475,533.908,966.463
421,32.395,534.957,966.522
422,32.314,536.012,966.581
423,32.233,537.074,966.640
424,32.152,538.144,966.697
425,32.070,539.219,966.754
426,31.988,540.302,966.811
427,31.906,541.390,966.868
428,31.823,542.485,966.923
429,31.740,543.586,966.979
430,31.657,544.693,967.033
431,31.573,545.808,967.088
432,31.489,546.927,967.141
433,31.404,548.054,967.195
434,31.320,549.185,967.247
435,31.234,550.324,967.299
436,31.149,551.467,967.351
437,31.062,552.617,967.403
438,30.976,553.773,967.453
439,30.889,554.933,967.504
440,30.801,556.100,967.554
441,30.714,557.271,967.604
442,30.625,558.448,967.653
443,30.536,559.629,967.702
444,30.447,560.816,967.750
445,30.357,562.007,967.798
446,30.267,563.204,967.846
447,30.176,564.404,967.894
448,30.085,565.610,967.941
449,29.994,566.819,967.988
450,29.901,568.033,968.035
451,29.809,569.250,968.081
452,29.715,570.472,968.127
453,29.622,571.696,968.174
454,29.528,572.925,968.220
455,29.433,574.156,968.266
456,29.338,575.391,968.312
457,29.242,576.627,968.358
458,29.146,577.868,968.405
459,29.049,579.110,968.451
460,28.952,580.354,968.497
461,28.854,581.600,968.543
462,28.756,582.848,968.590
463,28.657,584.097,968.637
464,28.557,585.348,968.684
465,28.458,586.598,968.731
466,28.357,587.850,968.779
467,28.256,589.103,968.827
468,28.155,590.354,968.876
469,28.053,591.605,968.925
470,27.951,592.857,968.974
471,27.848,594.106,969.024
472,27.745,595.355,969.074
473,27.641,596.602,969.125
474,27.537,597.846,969.176
475,27.432,599.089,969.229
476,27.327,600.327,969.281
477,27.222,601.564,969.335
478,27.116,602.796,969.389
479,27.009,604.024,969.444
480,26.902,605.248,969.499
481,26.795,606.467,969.555
482,26.687,607.681,969.613
483,26.579,608.888,969.670
484,26.470,610.090,969.729
485,26.361,611.286,969.790
486,26.252,612.474,969.851
487,26.142,613.655,969.913
488,26.032,614.827,969.976
489,25.922,615.993,970.041
490,25.812,617.149,970.107
491,25.701,618.296,970.174
492,25.590,619.433,970.243
493,25.478,620.561,970.313
494,25.367,621.678,970.385
495,25.255,622.786,970.459
496,25.143,623.882,970.534
497,25.031,624.967,970.610
498,24.919,626.041,970.689
499,24.806,627.104,970.770
500,24.694,628.155,970.852
501,24.582,629.194,970.938
502,24.469,630.221,971.025
503,24.357,631.236,971.113
504,24.245,632.240,971.205
505,24.133,633.230,971.298
506,24.021,634.208,971.394
507,23.909,635.175,971.492
508,23.798,636.130,971.593
509,23.687,637.073,971.695
510,23.576,638.005,971.801
511,23.465,638.925,971.908
512,23.355,639.834,972.017
513,23.245,640.733,972.129
514,23.135,641.621,972.244
515,23.026,642.500,972.360
516,22.917,643.370,972.478
517,22.809,644.230,972.599
518,22.701,645.082,972.721
519,22.594,645.925,972.845
520,22.487,646.762,972.971
521,22.381,647.593,973.099
522,22.276,648.417,973.229
523,22.171,649.236,973.360
524,22.066,650.050,973.493
525,21.963,650.861,973.627
526,21.859,651.668,973.763
527,21.757,652.474,973.899
528,21.655,653.277,974.038
529,21.554,654.080,974.178
530,21.453,654.883,974.319
531,21.353,655.687,974.460
532,21.254,656.493,974.603
533,21.156,657.301,974.746
534,21.058,658.113,974.891
535,20.961,658.929,975.037
536,20.864,659.753,975.184
537,20.768,660.580,975.332
538,20.673,661.417,975.480
539,20.579,662.261,975.630
540,20.485,663.116,975.779
541,20.392,663.980,975.931
542,20.300,664.857,976.083
543,20.209,665.747,976.236
544,20.118,666.653,976.389
545,20.028,667.573,976.545
546,19.939,668.510,976.700
547,19.850,669.467,976.858
548,19.763,670.444,977.015
549,19.676,671.443,977.175
550,19.590,672.467,977.336
551,19.504,673.517,977.497
552,19.420,674.598,977.661
553,19.336,675.708,977.826
554,19.254,676.850,977.994
555,19.172,678.028,978.162
556,19.091,679.244,978.334
557,19.011,680.503,978.508
558,18.932,681.808,978.684
559,18.854,683.165,978.863
560,18.778,684.578,979.044
561,18.702,686.048,979.230
562,18.628,687.587,979.419
563,18.554,689.197,979.611
564,18.483,690.886,979.807
565,18.412,692.664,980.007
566,18.343,694.542,980.213
567,18.276,696.531,980.425
568,18.210,698.640,980.642
569,18.146,700.889,980.867
570,18.084,703.290,981.099
571,18.024,705.863,981.339
572,17.967,708.628,981.587
573,17.912,711.604,981.844
574,17.859,714.807,982.109
575,17.809,718.242,982.382
576,17.761,721.896,982.663
577,17.716,725.718,982.947
578,17.672,729.577,983.229
579,17.629,733.275,983.501
580,17.585,736.803,983.764
581,17.541,740.154,984.023
582,17.497,743.370,984.282
583,17.452,746.489,984.543
584,17.408,749.528,984.808
585,17.364,752.504,985.075
586,17.320,755.426,985.349
587,17.276,758.299,985.626
588,17.232,761.132,985.907
589,17.189,763.929,986.192
590,17.146,766.691,986.480
591,17.103,769.424,986.769
592,17.060,772.128,987.061
593,17.018,774.807,987.354
594,16.977,777.463,987.648
595,16.936,780.097,987.941
596,16.895,782.710,988.236
597,16.855,785.302,988.530
598,16.815,787.875,988.824
599,16.776,790.430,989.118
600,16.737,792.967,989.410
601,16.699,795.489,989.702
602,16.661,797.990,989.992
603,16.624,800.476,990.282
604,16.587,802.944,990.569
605,16.551,805.398,990.856
606,16.515,807.835,991.141
607,16.480,810.255,991.424
608,16.445,812.659,991.705
609,16.411,815.046,991.986
610,16.377,817.416,992.264
611,16.344,819.773,992.541
612,16.311,822.112,992.815
613,16.279,824.434,993.088
614,16.248,826.740,993.359
615,16.216,829.030,993.628
616,16.186,831.303,993.895
617,16.155,833.559,994.161
618,16.125,835.800,994.424
619,16.096,838.022,994.686
620,16.067,840.227,994.946
621,16.039,842.415,995.204
622,16.011,844.586,995.459
623,15.983,846.738,995.713
624,15.956,848.875,995.965
625,15.929,850.994,996.214
626,15.903,853.093,996.462
627,15.877,855.176,996.707
628,15.852,857.240,996.951
629,15.827,859.287,997.192
630,15.802,861.316,997.432
631,15.778,863.328,997.670
632,15.754,865.319,997.905
633,15.730,867.294,998.138
634,15.707,869.249,998.369
635,15.684,871.186,998.598
636,15.662,873.105,998.825
637,15.640,875.006,999.050
638,15.618,876.888,999.273
639,15.597,878.752,999.493
640,15.576,880.597,999.712
641,15.555,882.424,999.928
642,15.535,884.231,1000.138
643,15.515,886.021,1000.355
644,15.495,887.791,1000.562
645,15.475,889.544,1000.769
646,15.456,891.277,1000.977
647,15.437,892.993,1001.184
648,15.419,894.690,1001.381
649,15.401,896.367,1001.580
650,15.383,898.026,1001.781
651,15.365,899.667,1001.972
652,15.348,901.291,1002.163
653,15.330,902.896,1002.354
654,15.313,904.483,1002.545
655,15.297,906.050,1002.736
656,15.280,907.601,1002.917
657,15.264,909.133,1003.098
658,15.248,910.646,1003.280
659,15.233,912.143,1003.461
660,15.217,913.621,1003.632
661,15.202,915.080,1003.810
662,15.187,916.525,1003.984
663,15.173,917.949,1004.150
664,15.158,919.357,1004.317
665,15.144,920.747,1004.481
666,15.130,922.120,1004.646
667,15.116,923.475,1004.811
668,15.102,924.815,1004.966
669,15.089,926.136,1005.131
670,15.075,927.442,1005.285
671,15.062,928.730,1005.436
672,15.050,930.001,1005.586
673,15.037,931.256,1005.741
674,15.024,932.496,1005.887
675,15.012,933.719,1006.032
676,15.000,934.924,1006.177
677,14.988,936.115,1006.322
678,14.976,937.289,1006.458
679,14.964,938.449,1006.603
680,14.953,939.592,1006.738
681,14.942,940.720,1006.873
682,14.930,941.833,1007.004
683,14.920,942.929,1007.134
684,14.909,944.013,1007.262
685,14.898,945.079,1007.395
686,14.887,946.133,1007.520
687,14.877,947.170,1007.646
688,14.867,948.194,1007.768
689,14.857,949.203,1007.887
690,14.847,950.198,1008.006
691,14.837,951.179,1008.126
692,14.827,952.146,1008.245
693,14.818,953.100,1008.354
694,14.808,954.039,1008.473
695,14.799,954.966,1008.582
696,14.790,955.878,1008.691
697,14.781,956.779,1008.800
698,14.772,957.665,1008.903
699,14.763,958.539,1009.009
700,14.754,959.401,1009.109
701,14.745,960.249,1009.217
702,14.737,961.086,1009.317
703,14.729,961.909,1009.416
704,14.720,962.721,1009.515
705,14.712,963.521,1009.604
706,14.704,964.309,1009.704
707,14.696,965.085,1009.799
708,14.688,965.849,1009.891
709,14.680,966.603,1009.981
710,14.673,967.344,1010.067
711,14.665,968.075,1010.160
712,14.658,968.795,1010.243
713,14.650,969.503,1010.326
714,14.643,970.202,1010.409
715,14.636,970.889,1010.492
716,14.629,971.566,1010.575
717,14.622,972.233,1010.658
718,14.615,972.889,1010.736
719,14.608,973.536,1010.814
720,14.601,974.173,1010.886
721,14.594,974.799,1010.969
722,14.588,975.417,1011.042
723,14.581,976.024,1011.115
724,14.575,976.622,1011.188
725,14.568,977.212,1011.261
726,14.562,977.791,1011.324
727,14.556,978.362,1011.397
728,14.550,978.924,1011.461
729,14.544,979.476,1011.534
730,14.537,980.022,1011.597
731,14.532,980.557,1011.660
732,14.526,981.085,1011.723
733,14.520,981.604,1011.786
734,14.514,982.116,1011.849
735,14.508,982.619,1011.912
736,14.503,983.114,1011.972
737,14.497,983.601,1012.028
738,14.492,984.081,1012.086
