# Time (s),Mass (g),T Back (K),T Front (K)
0,68.400,293.000,293.000
1,68.400,293.000,513.942
2,68.400,293.000,567.459
3,68.399,293.000,605.831
4,68.396,293.000,635.573
5,68.390,293.000,659.969
6,68.379,293.000,679.732
7,68.359,293.000,696.669
8,68.328,293.000,710.758
9,68.285,293.000,723.004
10,68.228,293.000,733.370
11,68.149,293.000,742.120
12,68.051,293.000,749.545
13,67.941,293.000,756.301
14,67.825,293.000,762.589
15,67.707,293.000,768.579
16,67.589,293.000,774.412
17,67.474,293.000,780.141
18,67.362,293.000,785.651
19,67.250,293.000,790.847
20,67.139,293.000,795.800
21,67.029,293.000,800.531
22,66.920,293.000,804.995
23,66.812,293.000,809.218
24,66.705,293.000,813.242
25,66.598,293.000,817.036
26,66.492,293.000,820.636
27,66.387,293.000,824.099
28,66.284,293.000,827.399
29,66.181,293.000,830.543
30,66.078,293.000,833.536
31,65.977,293.000,836.408
32,65.876,293.000,839.162
33,65.777,293.000,841.804
34,65.678,293.000,844.342
35,65.580,293.000,846.775
36,65.483,293.000,849.114
37,65.386,293.000,851.369
38,65.291,293.000,853.543
39,65.196,293.000,855.630
40,65.102,293.001,857.650
41,65.008,293.001,859.604
42,64.916,293.001,861.483
43,64.824,293.001,863.303
44,64.733,293.002,865.073
45,64.642,293.002,866.777
46,64.552,293.003,868.423
47,64.463,293.003,870.026
48,64.375,293.005,871.580
49,64.287,293.006,873.088
50,64.200,293.007,874.557
51,64.113,293.008,875.971
52,64.027,293.010,877.342
53,63.942,293.012,878.675
54,63.858,293.015,879.963
55,63.774,293.017,881.229
56,63.690,293.021,882.466
57,63.607,293.025,883.672
58,63.525,293.029,884.845
59,63.443,293.034,885.983
60,63.361,293.040,887.104
61,63.280,293.046,888.194
62,63.200,293.053,889.265
63,63.120,293.061,890.302
64,63.041,293.069,891.318
65,62.961,293.079,892.311
66,62.883,293.089,893.286
67,62.805,293.101,894.236
68,62.727,293.113,895.165
69,62.649,293.127,896.074
70,62.572,293.142,896.965
71,62.496,293.159,897.836
72,62.420,293.177,898.690
73,62.344,293.196,899.527
74,62.269,293.216,900.347
75,62.194,293.238,901.150
76,62.119,293.263,901.941
77,62.045,293.288,902.711
78,61.971,293.316,903.473
79,61.898,293.345,904.214
80,61.824,293.376,904.946
81,61.752,293.410,905.661
82,61.679,293.445,906.365
83,61.607,293.482,907.056
84,61.535,293.522,907.734
85,61.464,293.564,908.403
86,61.392,293.608,909.056
87,61.322,293.654,909.700
88,61.251,293.704,910.333
89,61.181,293.755,910.954
90,61.111,293.809,911.567
91,61.041,293.866,912.167
92,60.972,293.925,912.759
93,60.903,293.987,913.342
94,60.834,294.052,913.913
95,60.766,294.120,914.477
96,60.698,294.191,915.032
97,60.630,294.264,915.577
98,60.562,294.340,916.116
99,60.495,294.420,916.644
100,60.428,294.502,917.165
101,60.361,294.589,917.680
102,60.294,294.677,918.185
103,60.228,294.769,918.683
104,60.162,294.865,919.175
105,60.096,294.963,919.659
106,60.031,295.065,920.135
107,59.965,295.170,920.607
108,59.900,295.278,921.071
109,59.835,295.390,921.527
110,59.771,295.505,921.978
111,59.706,295.624,922.424
112,59.642,295.746,922.861
113,59.578,295.872,923.294
114,59.515,296.001,923.722
115,59.451,296.134,924.143
116,59.388,296.270,924.558
117,59.325,296.410,924.969
118,59.262,296.553,925.376
119,59.200,296.700,925.774
120,59.137,296.851,926.168
121,59.075,297.005,926.559
122,59.013,297.162,926.945
123,58.952,297.324,927.324
124,58.890,297.489,927.698
125,58.829,297.658,928.070
126,58.768,297.830,928.438
127,58.707,298.006,928.799
128,58.646,298.187,929.157
129,58.585,298.370,929.510
130,58.525,298.556,929.860
131,58.465,298.747,930.206
132,58.405,298.941,930.546
133,58.345,299.139,930.883
134,58.285,299.341,931.217
135,58.226,299.546,931.548
136,58.167,299.756,931.873
137,58.108,299.968,932.195
138,58.049,300.184,932.514
139,57.990,300.404,932.829
140,57.932,300.627,933.142
141,57.873,300.855,933.450
142,57.815,301.086,933.755
143,57.757,301.319,934.056
144,57.699,301.558,934.355
145,57.641,301.799,934.651
146,57.584,302.044,934.943
147,57.526,302.292,935.232
148,57.469,302.544,935.518
149,57.412,302.799,935.802
150,57.355,303.058,936.083
151,57.298,303.320,936.361
152,57.242,303.586,936.636
153,57.185,303.855,936.907
154,57.129,304.128,937.177
155,57.073,304.403,937.443
156,57.017,304.683,937.708
157,56.961,304.965,937.970
158,56.905,305.250,938.229
159,56.850,305.540,938.486
160,56.794,305.832,938.739
161,56.739,306.128,938.991
162,56.684,306.427,939.240
163,56.629,306.729,939.486
164,56.574,307.034,939.732
165,56.519,307.343,939.974
166,56.465,307.654,940.215
167,56.410,307.969,940.452
168,56.356,308.287,940.688
169,56.302,308.608,940.921
170,56.248,308.931,941.153
171,56.194,309.258,941.382
172,56.140,309.589,941.610
173,56.087,309.921,941.835
174,56.033,310.257,942.059
175,55.980,310.596,942.280
176,55.926,310.937,942.500
177,55.873,311.282,942.716
178,55.820,311.629,942.932
179,55.767,311.979,943.146
180,55.714,312.331,943.358
181,55.662,312.687,943.568
182,55.609,313.046,943.776
183,55.557,313.407,943.984
184,55.505,313.771,944.189
185,55.452,314.136,944.392
186,55.400,314.505,944.593
187,55.348,314.877,944.793
188,55.297,315.251,944.991
189,55.245,315.628,945.188
190,55.193,316.007,945.383
191,55.142,316.389,945.576
192,55.090,316.773,945.769
193,55.039,317.159,945.959
194,54.988,317.548,946.148
195,54.937,317.940,946.335
196,54.886,318.334,946.522
197,54.835,318.730,946.706
198,54.785,319.128,946.889
199,54.734,319.529,947.070
200,54.683,319.932,947.251
201,54.633,320.337,947.430
202,54.583,320.744,947.608
203,54.532,321.154,947.784
204,54.482,321.566,947.959
205,54.432,321.980,948.132
206,54.382,322.395,948.304
207,54.333,322.813,948.475
208,54.283,323.234,948.645
209,54.233,323.656,948.813
210,54.184,324.079,948.981
211,54.134,324.505,949.146
212,54.085,324.934,949.311
213,54.036,325.364,949.475
214,53.987,325.795,949.637
215,53.938,326.228,949.799
216,53.889,326.665,949.959
217,53.840,327.102,950.118
218,53.791,327.542,950.275
219,53.743,327.983,950.432
220,53.694,328.425,950.588
221,53.646,328.869,950.742
222,53.597,329.315,950.896
223,53.549,329.764,951.049
224,53.501,330.213,951.199
225,53.453,330.664,951.350
226,53.405,331.117,951.499
227,53.357,331.572,951.648
228,53.309,332.027,951.795
229,53.261,332.485,951.941
230,53.213,332.943,952.087
231,53.166,333.405,952.231
232,53.118,333.867,952.375
233,53.071,334.330,952.518
234,53.023,334.795,952.658
235,52.976,335.262,952.800
236,52.929,335.730,952.939
237,52.882,336.198,953.078
238,52.835,336.669,953.216
239,52.788,337.141,953.353
240,52.741,337.614,953.489
241,52.694,338.089,953.624
242,52.647,338.565,953.758
243,52.601,339.041,953.892
244,52.554,339.520,954.025
245,52.508,339.999,954.157
246,52.461,340.480,954.288
247,52.415,340.962,954.418
248,52.369,341.445,954.548
249,52.322,341.929,954.677
250,52.276,342.415,954.804
251,52.230,342.901,954.932
252,52.184,343.388,955.057
253,52.138,343.878,955.184
254,52.092,344.367,955.308
255,52.047,344.858,955.433
256,52.001,345.349,955.555
257,51.955,345.842,955.678
258,51.910,346.335,955.800
259,51.864,346.830,955.920
260,51.819,347.325,956.041
261,51.773,347.822,956.161
262,51.728,348.319,956.279
263,51.683,348.817,956.397
264,51.638,349.317,956.515
265,51.593,349.817,956.632
266,51.548,350.318,956.748
267,51.503,350.820,956.864
268,51.458,351.322,956.978
269,51.413,351.826,957.092
270,51.368,352.330,957.206
271,51.323,352.835,957.319
272,51.279,353.340,957.431
273,51.234,353.847,957.543
274,51.189,354.354,957.654
275,51.145,354.862,957.764
276,51.101,355.370,957.874
277,51.056,355.880,957.983
278,51.012,356.390,958.092
279,50.968,356.900,958.200
280,50.923,357.411,958.307
281,50.879,357.923,958.414
282,50.835,358.436,958.520
283,50.791,358.949,958.625
284,50.747,359.462,958.731
285,50.703,359.977,958.835
286,50.659,360.491,958.939
287,50.616,361.006,959.042
288,50.572,361.522,959.145
289,50.528,362.038,959.247
290,50.485,362.555,959.349
291,50.441,363.072,959.450
292,50.397,363.590,959.550
293,50.354,364.108,959.650
294,50.310,364.627,959.750
295,50.267,365.146,959.849
296,50.224,365.666,959.947
297,50.180,366.186,960.045
298,50.137,366.706,960.143
299,50.094,367.227,960.241
300,50.051,367.747,960.337
301,50.008,368.270,960.433
302,49.965,368.791,960.528
303,49.922,369.313,960.623
304,49.879,369.836,960.717
305,49.836,370.359,960.812
306,49.793,370.882,960.905
307,49.750,371.406,960.999
308,49.707,371.929,961.091
309,49.665,372.454,961.183
310,49.622,372.977,961.275
311,49.579,373.502,961.367
312,49.537,374.027,961.458
313,49.494,374.552,961.548
314,49.452,375.077,961.637
315,49.409,375.602,961.727
316,49.367,376.128,961.816
317,49.324,376.654,961.905
318,49.282,377.180,961.993
319,49.240,377.707,962.081
320,49.198,378.233,962.168
321,49.155,378.760,962.255
322,49.113,379.286,962.342
323,49.071,379.813,962.428
324,49.029,380.340,962.514
325,48.987,380.868,962.598
326,48.945,381.394,962.683
327,48.903,381.922,962.768
328,48.861,382.450,962.852
329,48.819,382.977,962.936
330,48.777,383.505,963.019
331,48.735,384.032,963.102
332,48.693,384.560,963.184
333,48.651,385.088,963.267
334,48.610,385.616,963.348
335,48.568,386.144,963.429
336,48.526,386.672,963.511
337,48.485,387.200,963.592
338,48.443,387.727,963.671
339,48.401,388.256,963.752
340,48.360,388.784,963.831
341,48.318,389.311,963.910
342,48.277,389.840,963.989
343,48.235,390.367,964.067
344,48.194,390.895,964.146
345,48.153,391.423,964.223
346,48.111,391.951,964.301
347,48.070,392.479,964.378
348,48.028,393.006,964.454
349,47.987,393.533,964.530
350,47.946,394.061,964.607
351,47.905,394.588,964.682
352,47.863,395.116,964.758
353,47.822,395.642,964.833
354,47.781,396.169,964.907
355,47.740,396.696,964.982
356,47.699,397.223,965.056
357,47.658,397.750,965.130
358,47.617,398.276,965.203
359,47.576,398.803,965.276
360,47.535,399.329,965.349
361,47.494,399.855,965.421
362,47.453,400.381,965.494
363,47.412,400.906,965.566
364,47.371,401.431,965.637
365,47.330,401.957,965.708
366,47.289,402.482,965.779
367,47.248,403.007,965.850
368,47.207,403.532,965.920
369,47.167,404.056,965.990
370,47.126,404.580,966.060
371,47.085,405.105,966.130
372,47.044,405.628,966.198
373,47.004,406.152,966.267
374,46.963,406.675,966.336
375,46.922,407.197,966.404
376,46.881,407.720,966.472
377,46.841,408.243,966.540
378,46.800,408.765,966.608
379,46.759,409.288,966.675
380,46.719,409.809,966.742
381,46.678,410.330,966.808
382,46.638,410.852,966.874
383,46.597,411.372,966.941
384,46.557,411.893,967.007
385,46.516,412.413,967.072
386,46.475,412.933,967.138
387,46.435,413.452,967.203
388,46.394,413.971,967.267
389,46.354,414.490,967.332
390,46.313,415.008,967.396
391,46.273,415.527,967.460
392,46.233,416.044,967.524
393,46.192,416.561,967.587
394,46.152,417.078,967.651
395,46.111,417.595,967.713
396,46.071,418.111,967.776
397,46.030,418.627,967.838
398,45.990,419.142,967.901
399,45.950,419.657,967.963
400,45.909,420.172,968.024
401,45.869,420.686,968.086
402,45.829,421.200,968.147
403,45.788,421.713,968.208
404,45.748,422.226,968.269
405,45.708,422.739,968.329
406,45.667,423.251,968.390
407,45.627,423.763,968.450
408,45.587,424.274,968.510
409,45.546,424.785,968.569
410,45.506,425.295,968.629
411,45.466,425.805,968.688
412,45.426,426.314,968.747
413,45.385,426.823,968.805
414,45.345,427.332,968.864
415,45.305,427.839,968.922
416,45.264,428.347,968.980
417,45.224,428.854,969.039
418,45.184,429.360,969.096
419,45.144,429.866,969.153
420,45.103,430.372,969.211
421,45.063,430.876,969.267
422,45.023,431.381,969.324
423,44.983,431.885,969.380
424,44.942,432.388,969.437
425,44.902,432.891,969.493
426,44.862,433.394,969.548
427,44.822,433.895,969.604
428,44.781,434.397,969.660
429,44.741,434.897,969.715
430,44.701,435.398,969.770
431,44.661,435.898,969.825
432,44.620,436.397,969.879
433,44.580,436.895,969.934
434,44.540,437.393,969.989
435,44.499,437.890,970.043
436,44.459,438.387,970.096
437,44.419,438.884,970.150
438,44.379,439.379,970.203
439,44.338,439.875,970.257
440,44.298,440.369,970.310
441,44.258,440.863,970.362
442,44.217,441.357,970.415
443,44.177,441.849,970.468
444,44.137,442.342,970.520
445,44.097,442.833,970.572
446,44.056,443.324,970.624
447,44.016,443.815,970.676
448,43.976,444.305,970.728
449,43.935,444.794,970.779
450,43.895,445.283,970.830
451,43.855,445.770,970.881
452,43.814,446.258,970.932
453,43.774,446.745,970.983
454,43.733,447.231,971.033
455,43.693,447.717,971.083
456,43.653,448.202,971.134
457,43.612,448.686,971.184
458,43.572,449.170,971.233
459,43.531,449.653,971.283
460,43.491,450.136,971.332
461,43.450,450.618,971.382
462,43.410,451.098,971.430
463,43.370,451.580,971.479
464,43.329,452.060,971.529
465,43.289,452.540,971.577
466,43.248,453.018,971.626
467,43.208,453.496,971.674
468,43.167,453.974,971.722
469,43.126,454.451,971.769
470,43.086,454.928,971.817
471,43.045,455.403,971.865
472,43.005,455.879,971.912
473,42.964,456.353,971.960
474,42.924,456.828,972.007
475,42.883,457.300,972.054
476,42.842,457.774,972.100
477,42.802,458.246,972.148
478,42.761,458.717,972.194
479,42.720,459.188,972.240
480,42.680,459.659,972.286
481,42.639,460.129,972.332
482,42.598,460.598,972.379
483,42.557,461.066,972.424
484,42.517,461.534,972.469
485,42.476,462.002,972.515
486,42.435,462.469,972.560
487,42.394,462.935,972.606
488,42.353,463.402,972.650
489,42.313,463.867,972.695
490,42.272,464.331,972.740
491,42.231,464.795,972.784
492,42.190,465.259,972.829
493,42.149,465.722,972.873
494,42.108,466.184,972.917
495,42.067,466.647,972.962
496,42.026,467.108,973.005
497,41.985,467.568,973.049
498,41.944,468.028,973.092
499,41.903,468.489,973.136
500,41.862,468.948,973.179
501,41.821,469.407,973.223
502,41.780,469.865,973.266
503,41.739,470.322,973.308
504,41.698,470.780,973.351
505,41.656,471.237,973.394
506,41.615,471.693,973.436
507,41.574,472.149,973.479
508,41.533,472.604,973.520
509,41.492,473.059,973.563
510,41.450,473.514,973.605
511,41.409,473.967,973.647
512,41.368,474.421,973.688
513,41.327,474.874,973.730
514,41.285,475.326,973.771
515,41.244,475.778,973.813
516,41.202,476.230,973.854
517,41.161,476.681,973.895
518,41.120,477.133,973.936
519,41.078,477.583,973.977
520,41.037,478.033,974.017
521,40.995,478.483,974.058
522,40.954,478.932,974.099
523,40.912,479.380,974.139
524,40.870,479.829,974.179
525,40.829,480.277,974.219
526,40.787,480.725,974.259
527,40.746,481.172,974.299
528,40.704,481.619,974.339
529,40.662,482.066,974.378
530,40.620,482.512,974.418
531,40.579,482.958,974.457
532,40.537,483.403,974.497
533,40.495,483.848,974.535
534,40.453,484.293,974.574
535,40.411,484.738,974.614
536,40.369,485.182,974.652
537,40.328,485.626,974.691
538,40.286,486.070,974.730
539,40.244,486.512,974.768
540,40.202,486.956,974.806
541,40.160,487.399,974.845
542,40.118,487.841,974.883
543,40.075,488.283,974.921
544,40.033,488.724,974.958
545,39.991,489.165,974.997
546,39.949,489.608,975.034
547,39.907,490.048,975.071
548,39.865,490.489,975.109
549,39.822,490.929,975.146
550,39.780,491.369,975.184
551,39.738,491.809,975.220
552,39.695,492.248,975.258
553,39.653,492.687,975.294
554,39.611,493.127,975.331
555,39.568,493.566,975.368
556,39.526,494.004,975.405
557,39.483,494.443,975.441
558,39.441,494.881,975.477
559,39.398,495.319,975.514
560,39.355,495.756,975.550
561,39.313,496.194,975.586
562,39.270,496.631,975.622
563,39.227,497.068,975.658
564,39.185,497.504,975.693
565,39.142,497.941,975.729
566,39.099,498.377,975.764
567,39.056,498.814,975.800
568,39.013,499.250,975.835
569,38.970,499.685,975.870
570,38.927,500.120,975.905
571,38.884,500.556,975.940
572,38.841,500.991,975.975
573,38.798,501.425,976.010
574,38.755,501.860,976.044
575,38.712,502.294,976.079
576,38.669,502.729,976.114
577,38.626,503.162,976.147
578,38.582,503.596,976.182
579,38.539,504.030,976.216
580,38.496,504.463,976.250
581,38.452,504.896,976.284
582,38.409,505.329,976.318
583,38.365,505.761,976.351
584,38.322,506.194,976.385
585,38.278,506.627,976.418
586,38.235,507.059,976.452
587,38.191,507.491,976.486
588,38.147,507.922,976.519
589,38.104,508.354,976.552
590,38.060,508.785,976.585
591,38.016,509.216,976.617
592,37.972,509.647,976.651
593,37.928,510.077,976.683
594,37.885,510.508,976.716
595,37.841,510.939,976.748
596,37.797,511.369,976.781
597,37.753,511.798,976.813
598,37.708,512.228,976.845
599,37.664,512.658,976.877
600,37.620,513.087,976.909
601,37.576,513.516,976.941
602,37.532,513.944,976.973
603,37.487,514.373,977.005
604,37.443,514.801,977.037
605,37.398,515.229,977.067
606,37.354,515.657,977.099
607,37.309,516.085,977.130
608,37.265,516.512,977.162
609,37.220,516.939,977.193
610,37.176,517.367,977.224
611,37.131,517.793,977.255
612,37.086,518.220,977.285
613,37.041,518.646,977.317
614,36.996,519.072,977.347
615,36.952,519.498,977.377
616,36.907,519.923,977.407
617,36.862,520.349,977.438
618,36.816,520.774,977.468
619,36.771,521.199,977.499
620,36.726,521.623,977.528
621,36.681,522.048,977.559
622,36.636,522.471,977.589
623,36.590,522.895,977.618
624,36.545,523.320,977.648
625,36.500,523.742,977.677
626,36.454,524.165,977.707
627,36.409,524.588,977.737
628,36.363,525.010,977.766
629,36.317,525.433,977.795
630,36.272,525.855,977.824
631,36.226,526.277,977.853
632,36.180,526.698,977.882
633,36.134,527.119,977.911
634,36.088,527.540,977.940
635,36.042,527.960,977.968
636,35.996,528.381,977.997
637,35.950,528.801,978.025
638,35.904,529.220,978.054
639,35.858,529.639,978.083
640,35.811,530.058,978.111
641,35.765,530.477,978.139
642,35.719,530.896,978.167
643,35.672,531.314,978.195
644,35.626,531.732,978.223
645,35.579,532.149,978.251
646,35.533,532.566,978.278
647,35.486,532.983,978.306
648,35.439,533.399,978.334
649,35.392,533.816,978.362
650,35.346,534.231,978.389
651,35.299,534.647,978.416
652,35.252,535.062,978.443
653,35.205,535.477,978.471
654,35.158,535.891,978.498
655,35.110,536.305,978.525
656,35.063,536.719,978.552
657,35.016,537.133,978.578
658,34.969,537.546,978.605
659,34.921,537.959,978.632
660,34.874,538.370,978.659
661,34.826,538.782,978.686
662,34.779,539.194,978.712
663,34.731,539.605,978.739
664,34.684,540.016,978.764
665,34.636,540.426,978.791
666,34.588,540.836,978.818
667,34.540,541.245,978.844
668,34.492,541.655,978.870
669,34.444,542.064,978.896
670,34.396,542.472,978.922
671,34.348,542.880,978.948
672,34.300,543.287,978.974
673,34.252,543.694,978.999
674,34.203,544.101,979.025
675,34.155,544.507,979.051
676,34.107,544.913,979.077
677,34.058,545.318,979.102
678,34.010,545.723,979.128
679,33.961,546.128,979.153
680,33.913,546.532,979.178
681,33.864,546.936,979.204
682,33.815,547.339,979.229
683,33.766,547.741,979.255
684,33.717,548.143,979.280
685,33.669,548.545,979.305
686,33.620,548.947,979.330
687,33.571,549.347,979.355
688,33.521,549.747,979.380
689,33.472,550.147,979.405
690,33.423,550.547,979.430
691,33.374,550.945,979.455
692,33.324,551.343,979.479
693,33.275,551.741,979.504
694,33.226,552.139,979.529
695,33.176,552.535,979.554
696,33.127,552.931,979.579
697,33.077,553.327,979.603
698,33.027,553.723,979.628
699,32.978,554.117,979.652
700,32.928,554.511,979.677
701,32.878,554.905,979.701
702,32.828,555.298,979.725
703,32.778,555.690,979.750
704,32.728,556.082,979.774
705,32.678,556.473,979.798
706,32.628,556.864,979.822
707,32.578,557.254,979.847
708,32.528,557.644,979.871
709,32.477,558.033,979.895
710,32.427,558.421,979.919
711,32.377,558.809,979.943
712,32.326,559.196,979.967
713,32.276,559.583,979.991
714,32.225,559.969,980.015
715,32.175,560.354,980.040
716,32.124,560.740,980.064
717,32.073,561.123,980.088
718,32.023,561.507,980.111
719,31.972,561.890,980.136
720,31.921,562.272,980.159
721,31.870,562.654,980.183
722,31.819,563.035,980.207
723,31.768,563.415,980.231
724,31.717,563.794,980.254
725,31.666,564.174,980.278
726,31.615,564.552,980.302
727,31.564,564.929,980.326
728,31.512,565.306,980.349
729,31.461,565.683,980.374
730,31.410,566.057,980.397
731,31.358,566.433,980.421
732,31.307,566.807,980.445
733,31.256,567.180,980.468
734,31.204,567.553,980.492
735,31.153,567.925,980.516
736,31.101,568.296,980.539
737,31.049,568.666,980.563
738,30.998,569.035,980.586
739,30.946,569.404,980.610
740,30.894,569.772,980.634
741,30.842,570.140,980.657
742,30.790,570.507,980.681
