# Time (s),Mass (g),T Back (K),T Front (K)
0,22.800,293.000,293.000
1,22.800,293.000,452.352
2,22.800,293.000,514.254
3,22.799,293.001,557.856
4,22.795,293.011,591.183
5,22.786,293.055,617.402
6,22.772,293.168,639.138
7,22.752,293.406,657.872
8,22.724,293.830,675.464
9,22.686,294.501,692.368
10,22.636,295.461,708.635
11,22.566,296.749,723.480
12,22.469,298.402,736.516
13,22.356,300.440,748.292
14,22.232,302.847,759.131
15,22.100,305.603,769.107
16,21.966,308.687,778.765
17,21.835,312.070,788.280
18,21.705,315.724,797.144
19,21.576,319.625,805.284
20,21.450,323.738,812.893
21,21.324,328.044,819.664
22,21.201,332.517,826.118
23,21.080,337.134,832.003
24,20.960,341.876,837.434
25,20.843,346.723,842.593
26,20.727,351.659,847.271
27,20.612,356.668,851.690
28,20.500,361.733,855.885
29,20.389,366.843,859.723
30,20.279,371.983,863.367
31,20.171,377.141,866.856
32,20.063,382.308,870.087
33,19.957,387.473,873.141
34,19.852,392.625,876.101
35,19.747,397.755,878.878
36,19.643,402.856,881.483
37,19.540,407.916,884.016
38,19.438,412.927,886.443
39,19.336,417.882,888.721
40,19.235,422.769,890.908
41,19.134,427.582,893.042
42,19.034,432.308,895.068
43,18.933,436.939,896.990
44,18.832,441.465,898.858
45,18.732,445.875,900.677
46,18.632,450.158,902.407
47,18.531,454.306,904.063
48,18.431,458.310,905.682
49,18.330,462.162,907.255
50,18.229,465.855,908.756
51,18.128,469.386,910.204
52,18.027,472.756,911.623
53,17.926,475.969,913.004
54,17.824,479.028,914.327
55,17.722,481.945,915.611
56,17.619,484.731,916.871
57,17.517,487.399,918.099
58,17.415,489.965,919.283
59,17.312,492.444,920.433
60,17.209,494.853,921.566
61,17.106,497.205,922.670
62,17.003,499.516,923.737
63,16.900,501.799,924.779
64,16.797,504.061,925.803
65,16.694,506.317,926.804
66,16.590,508.573,927.774
67,16.487,510.835,928.722
68,16.384,513.110,929.654
69,16.280,515.402,930.565
70,16.176,517.715,931.448
71,16.073,520.051,932.312
72,15.969,522.413,933.162
73,15.865,524.803,933.994
74,15.761,527.221,934.803
75,15.656,529.668,935.594
76,15.551,532.145,936.371
77,15.446,534.651,937.134
78,15.340,537.188,937.877
79,15.234,539.752,938.602
80,15.128,542.345,939.316
81,15.021,544.965,940.017
82,14.913,547.611,940.700
83,14.804,550.284,941.367
84,14.695,552.980,942.024
85,14.585,555.699,942.669
86,14.474,558.439,943.297
87,14.362,561.199,943.914
88,14.249,563.979,944.520
89,14.135,566.774,945.114
90,14.020,569.584,945.697
91,13.904,572.407,946.268
92,13.786,575.243,946.832
93,13.667,578.087,947.386
94,13.547,580.939,947.928
95,13.426,583.797,948.465
96,13.303,586.659,948.995
97,13.179,589.523,949.517
98,13.053,592.386,950.033
99,12.926,595.248,950.546
100,12.798,598.106,951.053
101,12.668,600.958,951.557
102,12.537,603.798,952.057
103,12.405,606.628,952.556
104,12.272,609.443,953.052
105,12.137,612.243,953.547
106,12.002,615.022,954.042
107,11.865,617.778,954.536
108,11.727,620.507,955.028
109,11.589,623.205,955.522
110,11.450,625.870,956.016
111,11.310,628.499,956.512
112,11.169,631.088,957.008
113,11.028,633.633,957.506
114,10.886,636.130,958.006
115,10.745,638.578,958.510
116,10.603,640.973,959.017
117,10.461,643.313,959.528
118,10.319,645.598,960.044
119,10.178,647.827,960.565
120,10.037,650.001,961.090
121,9.897,652.116,961.622
122,9.758,654.179,962.160
123,9.620,656.190,962.702
124,9.483,658.153,963.251
125,9.348,660.073,963.804
126,9.214,661.954,964.362
127,9.082,663.801,964.923
128,8.951,665.623,965.488
129,8.823,667.425,966.055
130,8.696,669.214,966.624
131,8.572,670.999,967.195
132,8.449,672.788,967.767
133,8.329,674.591,968.339
134,8.211,676.418,968.912
135,8.095,678.278,969.485
136,7.981,680.185,970.059
137,7.870,682.145,970.633
138,7.760,684.171,971.209
139,7.653,686.280,971.786
140,7.549,688.485,972.366
141,7.446,690.811,972.951
142,7.347,693.273,973.539
143,7.249,695.902,974.134
144,7.154,698.723,974.737
145,7.063,701.775,975.352
146,6.974,705.110,975.979
147,6.888,708.786,976.623
148,6.805,712.871,977.290
149,6.727,717.481,977.982
150,6.653,722.715,978.708
151,6.584,728.738,979.470
152,6.521,735.715,980.280
153,6.464,743.758,981.132
154,6.413,752.335,982.007
155,6.363,761.308,982.856
156,6.312,769.427,983.694
157,6.260,776.971,984.549
158,6.210,784.167,985.425
159,6.160,791.111,986.315
160,6.111,797.857,987.206
161,6.063,804.449,988.093
162,6.017,810.907,988.970
163,5.973,817.240,989.832
164,5.929,823.458,990.681
165,5.888,829.562,991.512
166,5.848,835.551,992.324
167,5.809,841.430,993.119
168,5.772,847.205,993.897
169,5.737,852.853,994.659
170,5.703,858.393,995.403
171,5.670,863.804,996.124
172,5.639,869.098,996.830
173,5.609,874.278,997.521
174,5.580,879.319,998.187
175,5.553,884.234,998.840
176,5.527,889.023,999.471
177,5.501,893.688,1000.083
178,5.477,898.232,1000.686
179,5.454,902.640,1001.258
180,5.431,906.913,1001.821
181,5.410,911.061,1002.366
182,5.389,915.084,1002.893
183,5.370,918.986,1003.403
184,5.351,922.764,1003.894
185,5.332,926.407,1004.368
186,5.315,929.932,1004.828
187,5.298,933.339,1005.269
188,5.282,936.631,1005.697
189,5.267,939.805,1006.107
190,5.252,942.862,1006.510
191,5.237,945.807,1006.889
192,5.224,948.643,1007.259
193,5.210,951.374,1007.615
194,5.198,954.005,1007.952
195,5.185,956.533,1008.285
196,5.173,958.956,1008.596
197,5.162,961.285,1008.897
198,5.151,963.528,1009.185
199,5.140,965.682,1009.464
200,5.130,967.743,1009.728
201,5.120,969.718,1009.987
202,5.111,971.614,1010.227
203,5.101,973.435,1010.467
204,5.092,975.182,1010.689
205,5.084,976.850,1010.905
206,5.076,978.444,1011.109
207,5.067,979.973,1011.309
208,5.060,981.441,1011.495
209,5.052,982.847,1011.675
210,5.045,984.186,1011.854
211,5.038,985.466,1012.014
212,5.031,986.691,1012.178
213,5.024,987.866,1012.327
214,5.017,988.990,1012.472
215,5.011,990.061,1012.606
216,5.005,991.086,1012.739
217,4.999,992.068,1012.866
218,4.993,993.006,1012.987
219,4.988,993.901,1013.098
220,4.982,994.753,1013.215
221,4.977,995.567,1013.316
222,4.972,996.348,1013.419
223,4.966,997.093,1013.516
224,4.961,997.806,1013.603
225,4.957,998.488,1013.698
226,4.952,999.139,1013.778
227,4.947,999.761,1013.858
228,4.943,1000.353,1013.934
229,4.939,1000.923,1014.007
230,4.934,1001.467,1014.077
231,4.930,1001.986,1014.143
232,4.926,1002.485,1014.208
233,4.922,1002.954,1014.269
234,4.918,1003.403,1014.328
235,4.915,1003.834,1014.381
236,4.911,1004.242,1014.436
237,4.907,1004.636,1014.484
238,4.904,1005.015,1014.533
239,4.900,1005.375,1014.582
240,4.897,1005.717,1014.626
241,4.894,1006.051,1014.670
242,4.890,1006.371,1014.709
243,4.887,1006.675,1014.746
244,4.884,1006.965,1014.782
245,4.881,1007.240,1014.819
246,4.878,1007.500,1014.856
247,4.875,1007.757,1014.892
248,4.872,1008.008,1014.919
249,4.870,1008.241,1014.951
250,4.867,1008.467,1014.983
251,4.864,1008.687,1015.010
252,4.861,1008.894,1015.034
253,4.859,1009.090,1015.059
254,4.856,1009.286,1015.083
255,4.854,1009.465,1015.108
256,4.851,1009.637,1015.132
257,4.849,1009.809,1015.157
258,4.846,1009.975,1015.176
259,4.844,1010.127,1015.196
260,4.842,1010.274,1015.211
261,4.839,1010.419,1015.235
262,4.837,1010.554,1015.255
263,4.835,1010.690,1015.267
264,4.833,1010.815,1015.289
265,4.831,1010.939,1015.302
266,4.829,1011.058,1015.314
267,4.826,1011.168,1015.333
268,4.824,1011.279,1015.349
269,4.822,1011.389,1015.361
270,4.820,1011.488,1015.373
271,4.818,1011.581,1015.386
272,4.817,1011.675,1015.398
273,4.815,1011.763,1015.410
274,4.813,1011.850,1015.423
275,4.811,1011.936,1015.435
276,4.809,1012.015,1015.448
277,4.807,1012.099,1015.450
278,4.806,1012.173,1015.462
279,4.804,1012.248,1015.475
280,4.802,1012.322,1015.487
281,4.800,1012.387,1015.490
282,4.799,1012.458,1015.502
283,4.797,1012.520,1015.510
284,4.796,1012.582,1015.516
285,4.794,1012.644,1015.529
286,4.792,1012.705,1015.531
287,4.791,1012.758,1015.540
288,4.789,1012.814,1015.546
289,4.788,1012.863,1015.558
290,4.786,1012.913,1015.561
291,4.785,1012.963,1015.570
292,4.783,1013.012,1015.576
293,4.782,1013.054,1015.580
294,4.780,1013.101,1015.590
295,4.779,1013.148,1015.593
296,4.778,1013.186,1015.600
297,4.776,1013.230,1015.600
298,4.775,1013.270,1015.610
299,4.773,1013.307,1015.612
300,4.772,1013.345,1015.620
301,4.771,1013.382,1015.620
302,4.769,1013.419,1015.630
303,4.768,1013.456,1015.632
304,4.767,1013.494,1015.640
305,4.766,1013.524,1015.640
306,4.764,1013.558,1015.649
307,4.763,1013.586,1015.650
308,4.762,1013.619,1015.654
309,4.761,1013.650,1015.660
310,4.760,1013.678,1015.660
311,4.758,1013.705,1015.670
312,4.757,1013.738,1015.670
313,4.756,1013.763,1015.677
314,4.755,1013.797,1015.680
315,4.754,1013.823,1015.680
316,4.753,1013.848,1015.684
317,4.751,1013.873,1015.690
318,4.750,1013.898,1015.690
319,4.749,1013.923,1015.691
320,4.748,1013.944,1015.700
321,4.747,1013.963,1015.700
322,4.746,1013.988,1015.700
323,4.745,1014.013,1015.710
324,4.744,1014.038,1015.710
325,4.743,1014.063,1015.710
326,4.742,1014.079,1015.719
327,4.741,1014.101,1015.720
328,4.740,1014.118,1015.720
329,4.739,1014.143,1015.726
330,4.738,1014.159,1015.730
331,4.737,1014.181,1015.730
332,4.736,1014.198,1015.730
333,4.735,1014.216,1015.736
334,4.734,1014.229,1015.740
335,4.733,1014.251,1015.740
336,4.732,1014.264,1015.740
337,4.731,1014.283,1015.740
338,4.730,1014.299,1015.749
339,4.729,1014.311,1015.750
340,4.729,1014.324,1015.750
341,4.728,1014.343,1015.750
342,4.727,1014.359,1015.750
343,4.726,1014.371,1015.760
344,4.725,1014.384,1015.760
345,4.724,1014.403,1015.760
346,4.723,1014.419,1015.760
347,4.722,1014.432,1015.762
348,4.722,1014.444,1015.770
349,4.721,1014.457,1015.770
350,4.720,1014.469,1015.770
351,4.719,1014.482,1015.770
352,4.718,1014.494,1015.770
353,4.717,1014.507,1015.777
354,4.717,1014.519,1015.780
355,4.716,1014.532,1015.780
356,4.715,1014.545,1015.780
357,4.714,1014.557,1015.780
358,4.714,1014.570,1015.780
359,4.713,1014.582,1015.782
360,4.712,1014.595,1015.790
361,4.711,1014.607,1015.790
362,4.710,1014.610,1015.790
363,4.710,1014.622,1015.790
364,4.709,1014.635,1015.790
365,4.708,1014.648,1015.790
366,4.707,1014.660,1015.800
367,4.707,1014.663,1015.800
368,4.706,1014.675,1015.800
369,4.705,1014.688,1015.800
370,4.705,1014.700,1015.800
371,4.704,1014.703,1015.800
372,4.703,1014.716,1015.800
373,4.702,1014.728,1015.808
374,4.702,1014.740,1015.810
375,4.701,1014.743,1015.810
376,4.700,1014.756,1015.810
377,4.700,1014.760,1015.810
378,4.699,1014.771,1015.810
379,4.698,1014.784,1015.810
380,4.698,1014.790,1015.810
381,4.697,1014.799,1015.819
382,4.696,1014.810,1015.820
383,4.696,1014.814,1015.820
384,4.695,1014.827,1015.820
385,4.694,1014.830,1015.820
386,4.694,1014.840,1015.820
387,4.693,1014.845,1015.820
388,4.692,1014.857,1015.820
389,4.692,1014.860,1015.820
390,4.691,1014.872,1015.830
391,4.691,1014.880,1015.830
392,4.690,1014.888,1015.830
393,4.689,1014.890,1015.830
394,4.689,1014.903,1015.830
395,4.688,1014.910,1015.830
396,4.688,1014.918,1015.830
397,4.687,1014.921,1015.830
398,4.686,1014.930,1015.830
399,4.686,1014.936,1015.830
400,4.685,1014.940,1015.839
401,4.685,1014.950,1015.840
402,4.684,1014.954,1015.840
403,4.683,1014.960,1015.840
404,4.683,1014.969,1015.840
405,4.682,1014.972,1015.840
406,4.682,1014.980,1015.840
407,4.681,1014.987,1015.840
408,4.681,1014.990,1015.840
409,4.680,1015.000,1015.840
410,4.679,1015.005,1015.840
411,4.679,1015.010,1015.848
412,4.678,1015.020,1015.850
413,4.678,1015.023,1015.850
414,4.677,1015.030,1015.850
415,4.677,1015.038,1015.850
416,4.676,1015.040,1015.850
417,4.676,1015.044,1015.850
418,4.675,1015.050,1015.850
419,4.675,1015.059,1015.850
420,4.674,1015.062,1015.850
421,4.674,1015.070,1015.850
422,4.673,1015.070,1015.850
423,4.673,1015.080,1015.850
424,4.672,1015.082,1015.852
425,4.672,1015.090,1015.860
426,4.671,1015.090,1015.860
427,4.670,1015.100,1015.860
428,4.670,1015.103,1015.860
429,4.669,1015.110,1015.860
430,4.669,1015.110,1015.860
431,4.669,1015.120,1015.860
432,4.668,1015.120,1015.860
433,4.668,1015.127,1015.860
434,4.667,1015.130,1015.860
435,4.667,1015.140,1015.860
436,4.666,1015.140,1015.860
437,4.666,1015.147,1015.860
438,4.665,1015.150,1015.860
439,4.665,1015.153,1015.863
440,4.664,1015.160,1015.870
441,4.664,1015.160,1015.870
442,4.663,1015.170,1015.870
443,4.663,1015.170,1015.870
444,4.662,1015.176,1015.870
445,4.662,1015.180,1015.870
446,4.661,1015.182,1015.870
447,4.661,1015.190,1015.870
448,4.661,1015.190,1015.870
449,4.660,1015.200,1015.870
450,4.660,1015.200,1015.870
451,4.659,1015.205,1015.870
452,4.659,1015.210,1015.870
453,4.658,1015.210,1015.870
454,4.658,1015.213,1015.870
455,4.657,1015.220,1015.870
456,4.657,1015.220,1015.870
457,4.657,1015.230,1015.880
458,4.656,1015.230,1015.880
459,4.656,1015.230,1015.880
460,4.655,1015.240,1015.880
461,4.655,1015.240,1015.880
462,4.654,1015.245,1015.880
463,4.654,1015.250,1015.880
464,4.654,1015.250,1015.880
465,4.653,1015.253,1015.880
466,4.653,1015.260,1015.880
467,4.652,1015.260,1015.880
468,4.652,1015.261,1015.880
469,4.652,1015.270,1015.880
470,4.651,1015.270,1015.880
471,4.651,1015.280,1015.880
472,4.650,1015.280,1015.880
473,4.650,1015.280,1015.880
474,4.649,1015.288,1015.880
475,4.649,1015.290,1015.880
476,4.649,1015.290,1015.880
477,4.648,1015.296,1015.880
478,4.648,1015.300,1015.889
479,4.648,1015.300,1015.890
480,4.647,1015.304,1015.890
481,4.647,1015.310,1015.890
482,4.646,1015.310,1015.890
483,4.646,1015.310,1015.890
484,4.646,1015.315,1015.890
485,4.645,1015.320,1015.890
486,4.645,1015.320,1015.890
487,4.644,1015.323,1015.890
488,4.644,1015.330,1015.890
489,4.644,1015.330,1015.890
490,4.643,1015.330,1015.890
491,4.643,1015.334,1015.890
492,4.643,1015.340,1015.890
493,4.642,1015.340,1015.890
494,4.642,1015.340,1015.890
495,4.642,1015.346,1015.890
496,4.641,1015.350,1015.890
497,4.641,1015.350,1015.890
498,4.640,1015.350,1015.890
499,4.640,1015.357,1015.890
500,4.640,1015.360,1015.890
501,4.639,1015.360,1015.890
502,4.639,1015.360,1015.890
503,4.639,1015.368,1015.898
504,4.638,1015.370,1015.900
505,4.638,1015.370,1015.900
506,4.638,1015.370,1015.900
507,4.637,1015.379,1015.900
508,4.637,1015.380,1015.900
509,4.637,1015.380,1015.900
510,4.636,1015.380,1015.900
511,4.636,1015.390,1015.900
512,4.636,1015.390,1015.900
513,4.635,1015.390,1015.900
514,4.635,1015.390,1015.900
515,4.635,1015.391,1015.900
516,4.634,1015.400,1015.900
517,4.634,1015.400,1015.900
518,4.634,1015.400,1015.900
519,4.633,1015.400,1015.900
520,4.633,1015.405,1015.900
521,4.633,1015.410,1015.900
522,4.632,1015.410,1015.900
523,4.632,1015.410,1015.900
524,4.632,1015.410,1015.900
525,4.631,1015.419,1015.900
526,4.631,1015.420,1015.900
527,4.631,1015.420,1015.900
528,4.630,1015.420,1015.900
529,4.630,1015.420,1015.900
530,4.630,1015.430,1015.900
531,4.629,1015.430,1015.900
532,4.629,1015.430,1015.900
533,4.629,1015.430,1015.900
534,4.628,1015.434,1015.904
535,4.628,1015.440,1015.910
536,4.628,1015.440,1015.910
537,4.627,1015.440,1015.910
538,4.627,1015.440,1015.910
539,4.627,1015.448,1015.910
540,4.627,1015.450,1015.910
541,4.626,1015.450,1015.910
542,4.626,1015.450,1015.910
543,4.626,1015.450,1015.910
544,4.625,1015.452,1015.910
545,4.625,1015.460,1015.910
546,4.625,1015.460,1015.910
547,4.624,1015.460,1015.910
548,4.624,1015.460,1015.910
549,4.624,1015.466,1015.910
550,4.624,1015.470,1015.910
551,4.623,1015.470,1015.910
552,4.623,1015.470,1015.910
553,4.623,1015.470,1015.910
554,4.622,1015.470,1015.910
555,4.622,1015.480,1015.910
556,4.622,1015.480,1015.910
557,4.622,1015.480,1015.910
558,4.621,1015.480,1015.910
559,4.621,1015.480,1015.910
560,4.621,1015.480,1015.910
561,4.620,1015.490,1015.910
562,4.620,1015.490,1015.910
563,4.620,1015.490,1015.910
564,4.620,1015.490,1015.910
565,4.619,1015.490,1015.910
566,4.619,1015.494,1015.910
567,4.619,1015.500,1015.910
568,4.618,1015.500,1015.910
569,4.618,1015.500,1015.910
570,4.618,1015.500,1015.910
571,4.618,1015.500,1015.910
572,4.617,1015.501,1015.911
573,4.617,1015.510,1015.920
574,4.617,1015.510,1015.920
575,4.617,1015.510,1015.920
576,4.616,1015.510,1015.920
577,4.616,1015.510,1015.920
578,4.616,1015.510,1015.920
579,4.615,1015.520,1015.920
580,4.615,1015.520,1015.920
581,4.615,1015.520,1015.920
582,4.615,1015.520,1015.920
583,4.614,1015.520,1015.920
584,4.614,1015.520,1015.920
585,4.614,1015.520,1015.920
586,4.614,1015.530,1015.920
587,4.613,1015.530,1015.920
588,4.613,1015.530,1015.920
589,4.613,1015.530,1015.920
590,4.613,1015.530,1015.920
591,4.612,1015.530,1015.920
592,4.612,1015.530,1015.920
593,4.612,1015.540,1015.920
594,4.612,1015.540,1015.920
595,4.611,1015.540,1015.920
596,4.611,1015.540,1015.920
597,4.611,1015.540,1015.920
598,4.611,1015.540,1015.920
599,4.610,1015.540,1015.920
600,4.610,1015.550,1015.920
601,4.610,1015.550,1015.920
602,4.610,1015.550,1015.920
603,4.609,1015.550,1015.920
604,4.609,1015.550,1015.920
605,4.609,1015.550,1015.920
606,4.609,1015.550,1015.920
607,4.608,1015.560,1015.920
608,4.608,1015.560,1015.920
609,4.608,1015.560,1015.920
610,4.608,1015.560,1015.920
611,4.607,1015.560,1015.920
612,4.607,1015.560,1015.920
613,4.607,1015.560,1015.920
614,4.607,1015.561,1015.920
615,4.606,1015.570,1015.920
616,4.606,1015.570,1015.920
617,4.606,1015.570,1015.920
618,4.606,1015.570,1015.920
619,4.606,1015.570,1015.920
620,4.605,1015.570,1015.920
621,4.605,1015.570,1015.922
622,4.605,1015.570,1015.930
623,4.605,1015.577,1015.930
624,4.604,1015.580,1015.930
625,4.604,1015.580,1015.930
626,4.604,1015.580,1015.930
627,4.604,1015.580,1015.930
628,4.603,1015.580,1015.930
629,4.603,1015.580,1015.930
630,4.603,1015.580,1015.930
631,4.603,1015.580,1015.930
632,4.603,1015.590,1015.930
633,4.602,1015.590,1015.930
634,4.602,1015.590,1015.930
635,4.602,1015.590,1015.930
636,4.602,1015.590,1015.930
637,4.601,1015.590,1015.930
638,4.601,1015.590,1015.930
639,4.601,1015.590,1015.930
640,4.601,1015.596,1015.930
641,4.601,1015.600,1015.930
642,4.600,1015.600,1015.930
643,4.600,1015.600,1015.930
644,4.600,1015.600,1015.930
645,4.600,1015.600,1015.930
646,4.599,1015.600,1015.930
647,4.599,1015.600,1015.930
648,4.599,1015.600,1015.930
649,4.599,1015.602,1015.930
650,4.599,1015.610,1015.930
651,4.598,1015.610,1015.930
652,4.598,1015.610,1015.930
653,4.598,1015.610,1015.930
654,4.598,1015.610,1015.930
655,4.597,1015.610,1015.930
656,4.597,1015.610,1015.930
657,4.597,1015.610,1015.930
658,4.597,1015.610,1015.930
659,4.597,1015.612,1015.930
660,4.596,1015.620,1015.930
661,4.596,1015.620,1015.930
662,4.596,1015.620,1015.930
663,4.596,1015.620,1015.930
664,4.596,1015.620,1015.930
665,4.595,1015.620,1015.930
666,4.595,1015.620,1015.930
667,4.595,1015.620,1015.930
668,4.595,1015.620,1015.930
669,4.595,1015.621,1015.930
670,4.594,1015.630,1015.930
671,4.594,1015.630,1015.930
672,4.594,1015.630,1015.930
673,4.594,1015.630,1015.930
674,4.594,1015.630,1015.930
675,4.593,1015.630,1015.930
676,4.593,1015.630,1015.930
677,4.593,1015.630,1015.930
678,4.593,1015.630,1015.930
679,4.593,1015.630,1015.930
680,4.592,1015.633,1015.930
681,4.592,1015.640,1015.930
682,4.592,1015.640,1015.930
683,4.592,1015.640,1015.930
684,4.592,1015.640,1015.930
685,4.591,1015.640,1015.930
686,4.591,1015.640,1015.930
687,4.591,1015.640,1015.930
688,4.591,1015.640,1015.936
689,4.591,1015.640,1015.940
690,4.590,1015.640,1015.940
691,4.590,1015.640,1015.940
692,4.590,1015.648,1015.940
693,4.590,1015.650,1015.940
694,4.590,1015.650,1015.940
695,4.589,1015.650,1015.940
696,4.589,1015.650,1015.940
697,4.589,1015.650,1015.940
698,4.589,1015.650,1015.940
699,4.589,1015.650,1015.940
700,4.589,1015.650,1015.940
701,4.588,1015.650,1015.940
702,4.588,1015.650,1015.940
703,4.588,1015.650,1015.940
704,4.588,1015.660,1015.940
705,4.588,1015.660,1015.940
706,4.587,1015.660,1015.940
707,4.587,1015.660,1015.940
708,4.587,1015.660,1015.940
709,4.587,1015.660,1015.940
710,4.587,1015.660,1015.940
711,4.587,1015.660,1015.940
712,4.586,1015.660,1015.940
713,4.586,1015.660,1015.940
714,4.586,1015.660,1015.940
715,4.586,1015.660,1015.940
716,4.586,1015.660,1015.940
717,4.585,1015.670,1015.940
718,4.585,1015.670,1015.940
719,4.585,1015.670,1015.940
720,4.585,1015.670,1015.940
721,4.585,1015.670,1015.940
722,4.585,1015.670,1015.940
723,4.584,1015.670,1015.940
724,4.584,1015.670,1015.940
725,4.584,1015.670,1015.940
