# Time (s),Mass (g),T Back (K),T Front (K)
0,22.800,293.000,293.000
1,22.800,293.000,448.240
2,22.800,293.000,508.848
3,22.800,293.001,552.386
4,22.798,293.013,587.163
5,22.795,293.061,615.850
6,22.789,293.184,640.400
7,22.778,293.441,661.464
8,22.760,293.896,680.030
9,22.733,294.613,696.228
10,22.694,295.645,710.468
11,22.639,297.020,722.387
12,22.560,298.767,731.653
13,22.452,300.938,738.254
14,22.325,303.505,743.755
15,22.186,306.461,748.512
16,22.040,309.787,752.845
17,21.891,313.454,757.050
18,21.741,317.437,761.356
19,21.592,321.707,765.842
20,21.445,326.232,770.592
21,21.298,330.985,775.387
22,21.151,335.939,780.096
23,21.005,341.068,784.650
24,20.858,346.348,789.079
25,20.712,351.760,793.288
26,20.566,357.285,797.382
27,20.421,362.906,801.263
28,20.277,368.607,804.993
29,20.134,374.378,808.596
30,19.991,380.205,812.075
31,19.848,386.079,815.478
32,19.706,391.990,818.775
33,19.564,397.928,821.932
34,19.422,403.887,825.033
35,19.280,409.857,828.023
36,19.138,415.833,830.914
37,18.997,421.807,833.727
38,18.854,427.774,836.456
39,18.712,433.726,839.109
40,18.570,439.659,841.686
41,18.427,445.565,844.190
42,18.283,451.441,846.627
43,18.139,457.278,848.994
44,17.994,463.074,851.298
45,17.849,468.820,853.540
46,17.702,474.512,855.724
47,17.555,480.145,857.852
48,17.407,485.713,859.924
49,17.257,491.214,861.944
50,17.106,496.643,863.913
51,16.954,501.996,865.833
52,16.801,507.275,867.708
53,16.646,512.479,869.537
54,16.489,517.609,871.322
55,16.331,522.669,873.066
56,16.172,527.663,874.770
57,16.011,532.596,876.437
58,15.848,537.475,878.066
59,15.683,542.303,879.659
60,15.517,547.088,881.216
61,15.349,551.831,882.741
62,15.179,556.537,884.230
63,15.006,561.207,885.687
64,14.832,565.844,887.111
65,14.656,570.445,888.502
66,14.477,575.011,889.861
67,14.296,579.537,891.189
68,14.113,584.020,892.485
69,13.927,588.456,893.752
70,13.738,592.840,894.988
71,13.547,597.164,896.196
72,13.353,601.423,897.377
73,13.155,605.609,898.532
74,12.955,609.714,899.662
75,12.752,613.732,900.768
76,12.546,617.654,901.853
77,12.337,621.471,902.919
78,12.125,625.177,903.966
79,11.911,628.765,904.998
80,11.693,632.229,906.016
81,11.474,635.565,907.024
82,11.252,638.771,908.022
83,11.027,641.845,909.015
84,10.801,644.788,910.004
85,10.574,647.606,910.991
86,10.345,650.302,911.980
87,10.115,652.888,912.971
88,9.885,655.373,913.967
89,9.655,657.768,914.970
90,9.425,660.089,915.983
91,9.195,662.352,917.004
92,8.966,664.572,918.036
93,8.738,666.767,919.080
94,8.512,668.954,920.135
95,8.287,671.150,921.205
96,8.064,673.375,922.290
97,7.843,675.645,923.390
98,7.625,677.979,924.508
99,7.409,680.398,925.646
100,7.196,682.922,926.807
101,6.986,685.574,927.992
102,6.779,688.385,929.210
103,6.577,691.380,930.462
104,6.378,694.604,931.758
105,6.184,698.098,933.105
106,5.995,701.927,934.512
107,5.812,706.161,935.994
108,5.636,710.905,937.568
109,5.468,716.283,939.255
110,5.312,722.474,941.086
111,5.168,729.691,943.095
112,5.043,738.153,945.326
113,4.938,748.568,947.825
114,4.857,761.193,950.617
115,4.801,775.954,953.698
116,4.760,791.411,956.878
117,4.719,805.369,960.017
118,4.677,818.074,963.153
119,4.635,829.920,966.252
120,4.594,841.087,969.266
121,4.554,851.658,972.157
122,4.516,861.696,974.912
123,4.480,871.231,977.527
124,4.447,880.281,980.003
125,4.415,888.866,982.343
126,4.385,896.994,984.550
127,4.357,904.687,986.633
128,4.331,911.950,988.592
129,4.307,918.797,990.433
130,4.284,925.245,992.161
131,4.263,931.317,993.784
132,4.243,937.017,995.304
133,4.224,942.367,996.726
134,4.206,947.382,998.056
135,4.190,952.078,999.300
136,4.174,956.470,1000.461
137,4.160,960.575,1001.538
138,4.146,964.407,1002.549
139,4.133,967.981,1003.489
140,4.121,971.314,1004.362
141,4.109,974.419,1005.178
142,4.098,977.307,1005.934
143,4.088,979.995,1006.639
144,4.078,982.495,1007.285
145,4.069,984.817,1007.891
146,4.060,986.975,1008.451
147,4.052,988.978,1008.972
148,4.044,990.836,1009.454
149,4.036,992.561,1009.908
150,4.029,994.160,1010.324
151,4.022,995.644,1010.709
152,4.015,997.020,1011.067
153,4.008,998.293,1011.394
154,4.002,999.475,1011.701
155,3.996,1000.570,1011.981
156,3.991,1001.585,1012.249
157,3.985,1002.522,1012.488
158,3.980,1003.390,1012.708
159,3.975,1004.198,1012.917
160,3.970,1004.947,1013.117
161,3.966,1005.637,1013.297
162,3.961,1006.287,1013.457
163,3.957,1006.878,1013.617
164,3.953,1007.428,1013.757
165,3.949,1007.938,1013.887
166,3.945,1008.410,1014.008
167,3.941,1008.850,1014.119
168,3.937,1009.261,1014.228
169,3.934,1009.642,1014.327
170,3.930,1009.991,1014.418
171,3.927,1010.315,1014.499
172,3.924,1010.623,1014.579
173,3.920,1010.904,1014.650
174,3.917,1011.164,1014.718
175,3.914,1011.407,1014.779
176,3.911,1011.633,1014.840
177,3.909,1011.846,1014.891
178,3.906,1012.039,1014.948
179,3.903,1012.223,1014.993
180,3.901,1012.396,1015.039
181,3.898,1012.554,1015.080
182,3.896,1012.706,1015.115
183,3.893,1012.838,1015.151
184,3.891,1012.971,1015.186
185,3.888,1013.091,1015.216
186,3.886,1013.203,1015.247
187,3.884,1013.315,1015.277
188,3.882,1013.417,1015.297
189,3.880,1013.509,1015.328
190,3.878,1013.593,1015.348
191,3.876,1013.674,1015.369
192,3.874,1013.756,1015.389
193,3.872,1013.828,1015.409
194,3.870,1013.900,1015.430
195,3.868,1013.961,1015.440
196,3.866,1014.022,1015.461
197,3.864,1014.084,1015.471
198,3.862,1014.135,1015.490
199,3.861,1014.187,1015.502
200,3.859,1014.238,1015.513
201,3.857,1014.287,1015.530
202,3.856,1014.328,1015.540
203,3.854,1014.369,1015.550
204,3.852,1014.410,1015.560
205,3.851,1014.451,1015.570
206,3.849,1014.486,1015.580
207,3.848,1014.523,1015.590
208,3.846,1014.554,1015.597
209,3.845,1014.585,1015.608
210,3.844,1014.617,1015.610
211,3.842,1014.648,1015.620
212,3.841,1014.669,1015.630
213,3.839,1014.700,1015.640
214,3.838,1014.721,1015.640
215,3.837,1014.751,1015.650
216,3.835,1014.772,1015.652
217,3.834,1014.793,1015.660
218,3.833,1014.813,1015.670
219,3.832,1014.834,1015.670
220,3.830,1014.855,1015.680
221,3.829,1014.875,1015.680
222,3.828,1014.896,1015.690
223,3.827,1014.917,1015.690
224,3.826,1014.927,1015.697
225,3.824,1014.948,1015.700
226,3.823,1014.960,1015.709
227,3.822,1014.979,1015.710
228,3.821,1014.990,1015.710
229,3.820,1015.010,1015.720
230,3.819,1015.022,1015.720
231,3.818,1015.040,1015.722
232,3.817,1015.050,1015.730
233,3.816,1015.064,1015.730
234,3.815,1015.075,1015.735
235,3.814,1015.090,1015.740
236,3.813,1015.100,1015.740
237,3.812,1015.110,1015.747
238,3.811,1015.128,1015.750
239,3.810,1015.139,1015.750
240,3.809,1015.149,1015.750
241,3.808,1015.160,1015.760
242,3.807,1015.170,1015.760
243,3.806,1015.180,1015.760
244,3.805,1015.190,1015.763
245,3.804,1015.194,1015.770
246,3.803,1015.205,1015.770
247,3.802,1015.215,1015.770
248,3.802,1015.226,1015.776
249,3.801,1015.230,1015.780
250,3.800,1015.240,1015.780
251,3.799,1015.250,1015.780
252,3.798,1015.260,1015.780
253,3.797,1015.261,1015.790
254,3.797,1015.272,1015.790
255,3.796,1015.280,1015.790
256,3.795,1015.290,1015.790
257,3.794,1015.295,1015.795
258,3.793,1015.300,1015.800
259,3.793,1015.310,1015.800
260,3.792,1015.318,1015.800
261,3.791,1015.320,1015.800
262,3.790,1015.330,1015.800
263,3.790,1015.340,1015.810
264,3.789,1015.341,1015.810
265,3.788,1015.350,1015.810
266,3.787,1015.353,1015.810
267,3.787,1015.360,1015.810
268,3.786,1015.370,1015.810
269,3.785,1015.370,1015.820
270,3.784,1015.380,1015.820
271,3.784,1015.389,1015.820
272,3.783,1015.390,1015.820
273,3.782,1015.400,1015.820
274,3.782,1015.400,1015.820
275,3.781,1015.410,1015.823
276,3.780,1015.410,1015.830
277,3.780,1015.420,1015.830
278,3.779,1015.420,1015.830
279,3.778,1015.427,1015.830
280,3.778,1015.430,1015.830
281,3.777,1015.439,1015.830
282,3.777,1015.440,1015.830
283,3.776,1015.442,1015.840
284,3.775,1015.450,1015.840
285,3.775,1015.454,1015.840
286,3.774,1015.460,1015.840
287,3.773,1015.460,1015.840
288,3.773,1015.470,1015.840
289,3.772,1015.470,1015.840
290,3.772,1015.479,1015.840
291,3.771,1015.480,1015.841
292,3.770,1015.480,1015.850
293,3.770,1015.490,1015.850
294,3.769,1015.490,1015.850
295,3.769,1015.495,1015.850
296,3.768,1015.500,1015.850
297,3.768,1015.500,1015.850
298,3.767,1015.509,1015.850
299,3.767,1015.510,1015.850
300,3.766,1015.510,1015.850
301,3.765,1015.520,1015.852
302,3.765,1015.520,1015.860
303,3.764,1015.520,1015.860
304,3.764,1015.530,1015.860
305,3.763,1015.530,1015.860
306,3.763,1015.530,1015.860
307,3.762,1015.540,1015.860
308,3.762,1015.540,1015.860
309,3.761,1015.540,1015.860
310,3.761,1015.550,1015.860
311,3.760,1015.550,1015.860
312,3.760,1015.550,1015.860
313,3.759,1015.557,1015.870
314,3.759,1015.560,1015.870
315,3.758,1015.560,1015.870
316,3.758,1015.561,1015.870
317,3.757,1015.570,1015.870
318,3.757,1015.570,1015.870
319,3.756,1015.570,1015.870
320,3.756,1015.576,1015.870
321,3.755,1015.580,1015.870
322,3.755,1015.580,1015.870
323,3.754,1015.580,1015.870
324,3.754,1015.590,1015.870
325,3.753,1015.590,1015.870
326,3.753,1015.590,1015.880
327,3.753,1015.590,1015.880
328,3.752,1015.600,1015.880
329,3.752,1015.600,1015.880
330,3.751,1015.600,1015.880
331,3.751,1015.600,1015.880
332,3.750,1015.610,1015.880
333,3.750,1015.610,1015.880
334,3.749,1015.610,1015.880
335,3.749,1015.610,1015.880
336,3.749,1015.617,1015.880
337,3.748,1015.620,1015.880
338,3.748,1015.620,1015.880
339,3.747,1015.620,1015.880
340,3.747,1015.620,1015.880
341,3.746,1015.630,1015.880
342,3.746,1015.630,1015.890
343,3.746,1015.630,1015.890
344,3.745,1015.630,1015.890
345,3.745,1015.630,1015.890
346,3.744,1015.640,1015.890
347,3.744,1015.640,1015.890
348,3.744,1015.640,1015.890
349,3.743,1015.640,1015.890
350,3.743,1015.640,1015.890
351,3.742,1015.650,1015.890
352,3.742,1015.650,1015.890
353,3.742,1015.650,1015.890
354,3.741,1015.650,1015.890
355,3.741,1015.650,1015.890
356,3.740,1015.654,1015.890
357,3.740,1015.660,1015.890
358,3.740,1015.660,1015.890
359,3.739,1015.660,1015.890
360,3.739,1015.660,1015.890
361,3.739,1015.660,1015.900
362,3.738,1015.670,1015.900
363,3.738,1015.670,1015.900
364,3.737,1015.670,1015.900
365,3.737,1015.670,1015.900
366,3.737,1015.670,1015.900
367,3.736,1015.670,1015.900
368,3.736,1015.680,1015.900
369,3.736,1015.680,1015.900
370,3.735,1015.680,1015.900
371,3.735,1015.680,1015.900
372,3.735,1015.680,1015.900
373,3.734,1015.680,1015.900
374,3.734,1015.680,1015.900
375,3.734,1015.690,1015.900
376,3.733,1015.690,1015.900
377,3.733,1015.690,1015.900
378,3.733,1015.690,1015.900
379,3.732,1015.690,1015.900
380,3.732,1015.690,1015.900
381,3.732,1015.700,1015.900
382,3.731,1015.700,1015.900
383,3.731,1015.700,1015.900
384,3.731,1015.700,1015.910
385,3.730,1015.700,1015.910
386,3.730,1015.700,1015.910
387,3.730,1015.700,1015.910
388,3.729,1015.701,1015.910
389,3.729,1015.710,1015.910
390,3.729,1015.710,1015.910
391,3.728,1015.710,1015.910
392,3.728,1015.710,1015.910
393,3.728,1015.710,1015.910
394,3.727,1015.710,1015.910
395,3.727,1015.710,1015.910
396,3.727,1015.720,1015.910
397,3.726,1015.720,1015.910
398,3.726,1015.720,1015.910
399,3.726,1015.720,1015.910
400,3.725,1015.720,1015.910
401,3.725,1015.720,1015.910
402,3.725,1015.720,1015.910
403,3.725,1015.720,1015.910
404,3.724,1015.726,1015.910
405,3.724,1015.730,1015.910
406,3.724,1015.730,1015.910
407,3.723,1015.730,1015.910
408,3.723,1015.730,1015.910
409,3.723,1015.730,1015.910
410,3.722,1015.730,1015.910
411,3.722,1015.730,1015.910
412,3.722,1015.730,1015.910
413,3.722,1015.730,1015.920
414,3.721,1015.740,1015.920
415,3.721,1015.740,1015.920
416,3.721,1015.740,1015.920
417,3.720,1015.740,1015.920
418,3.720,1015.740,1015.920
419,3.720,1015.740,1015.920
420,3.720,1015.740,1015.920
421,3.719,1015.740,1015.920
422,3.719,1015.740,1015.920
423,3.719,1015.750,1015.920
424,3.719,1015.750,1015.920
425,3.718,1015.750,1015.920
426,3.718,1015.750,1015.920
427,3.718,1015.750,1015.920
428,3.717,1015.750,1015.920
429,3.717,1015.750,1015.920
430,3.717,1015.750,1015.920
431,3.717,1015.750,1015.920
432,3.716,1015.750,1015.920
433,3.716,1015.752,1015.920
434,3.716,1015.760,1015.920
435,3.716,1015.760,1015.920
436,3.715,1015.760,1015.920
437,3.715,1015.760,1015.920
438,3.715,1015.760,1015.920
439,3.715,1015.760,1015.920
440,3.714,1015.760,1015.920
441,3.714,1015.760,1015.920
442,3.714,1015.760,1015.920
443,3.713,1015.760,1015.920
444,3.713,1015.760,1015.920
445,3.713,1015.770,1015.920
446,3.713,1015.770,1015.920
447,3.712,1015.770,1015.920
448,3.712,1015.770,1015.920
449,3.712,1015.770,1015.920
450,3.712,1015.770,1015.920
451,3.711,1015.770,1015.930
452,3.711,1015.770,1015.930
453,3.711,1015.770,1015.930
454,3.711,1015.770,1015.930
455,3.711,1015.770,1015.930
456,3.710,1015.770,1015.930
457,3.710,1015.780,1015.930
458,3.710,1015.780,1015.930
459,3.710,1015.780,1015.930
460,3.709,1015.780,1015.930
461,3.709,1015.780,1015.930
462,3.709,1015.780,1015.930
463,3.709,1015.780,1015.930
464,3.708,1015.780,1015.930
465,3.708,1015.780,1015.930
466,3.708,1015.780,1015.930
467,3.708,1015.780,1015.930
468,3.707,1015.780,1015.930
469,3.707,1015.780,1015.930
470,3.707,1015.784,1015.930
471,3.707,1015.790,1015.930
472,3.707,1015.790,1015.930
473,3.706,1015.790,1015.930
474,3.706,1015.790,1015.930
475,3.706,1015.790,1015.930
476,3.706,1015.790,1015.930
477,3.705,1015.790,1015.930
478,3.705,1015.790,1015.930
479,3.705,1015.790,1015.930
480,3.705,1015.790,1015.930
481,3.704,1015.790,1015.930
482,3.704,1015.790,1015.930
483,3.704,1015.790,1015.930
484,3.704,1015.790,1015.930
485,3.704,1015.799,1015.930
486,3.703,1015.800,1015.930
487,3.703,1015.800,1015.930
488,3.703,1015.800,1015.930
489,3.703,1015.800,1015.930
490,3.703,1015.800,1015.930
491,3.702,1015.800,1015.930
492,3.702,1015.800,1015.930
493,3.702,1015.800,1015.930
494,3.702,1015.800,1015.930
495,3.701,1015.800,1015.930
496,3.701,1015.800,1015.930
497,3.701,1015.800,1015.930
498,3.701,1015.800,1015.930
499,3.701,1015.800,1015.930
500,3.700,1015.800,1015.930
501,3.700,1015.807,1015.930
502,3.700,1015.810,1015.930
503,3.700,1015.810,1015.940
504,3.700,1015.810,1015.940
505,3.699,1015.810,1015.940
506,3.699,1015.810,1015.940
507,3.699,1015.810,1015.940
508,3.699,1015.810,1015.940
509,3.699,1015.810,1015.940
510,3.698,1015.810,1015.940
511,3.698,1015.810,1015.940
512,3.698,1015.810,1015.940
513,3.698,1015.810,1015.940
514,3.698,1015.810,1015.940
515,3.697,1015.810,1015.940
516,3.697,1015.810,1015.940
517,3.697,1015.810,1015.940
518,3.697,1015.810,1015.940
519,3.697,1015.819,1015.940
520,3.696,1015.820,1015.940
521,3.696,1015.820,1015.940
522,3.696,1015.820,1015.940
523,3.696,1015.820,1015.940
524,3.696,1015.820,1015.940
525,3.695,1015.820,1015.940
526,3.695,1015.820,1015.940
527,3.695,1015.820,1015.940
528,3.695,1015.820,1015.940
529,3.695,1015.820,1015.940
530,3.695,1015.820,1015.940
531,3.694,1015.820,1015.940
532,3.694,1015.820,1015.940
533,3.694,1015.820,1015.940
534,3.694,1015.820,1015.940
535,3.694,1015.820,1015.940
536,3.693,1015.820,1015.940
537,3.693,1015.820,1015.940
538,3.693,1015.820,1015.940
539,3.693,1015.826,1015.940
540,3.693,1015.830,1015.940
541,3.693,1015.830,1015.940
542,3.692,1015.830,1015.940
543,3.692,1015.830,1015.940
544,3.692,1015.830,1015.940
545,3.692,1015.830,1015.940
546,3.692,1015.830,1015.940
547,3.691,1015.830,1015.940
548,3.691,1015.830,1015.940
549,3.691,1015.830,1015.940
550,3.691,1015.830,1015.940
551,3.691,1015.830,1015.940
552,3.691,1015.830,1015.940
553,3.690,1015.830,1015.940
554,3.690,1015.830,1015.940
555,3.690,1015.830,1015.940
556,3.690,1015.830,1015.940
557,3.690,1015.830,1015.940
558,3.690,1015.830,1015.940
559,3.689,1015.830,1015.940
560,3.689,1015.830,1015.940
561,3.689,1015.830,1015.940
562,3.689,1015.840,1015.940
563,3.689,1015.840,1015.940
564,3.688,1015.840,1015.940
565,3.688,1015.840,1015.940
566,3.688,1015.840,1015.940
567,3.688,1015.840,1015.940
568,3.688,1015.840,1015.940
569,3.688,1015.840,1015.940
570,3.687,1015.840,1015.940
571,3.687,1015.840,1015.940
572,3.687,1015.840,1015.940
573,3.687,1015.840,1015.940
574,3.687,1015.840,1015.940
575,3.687,1015.840,1015.940
576,3.686,1015.840,1015.940
577,3.686,1015.840,1015.946
578,3.686,1015.840,1015.950
579,3.686,1015.840,1015.950
580,3.686,1015.840,1015.950
581,3.686,1015.840,1015.950
582,3.686,1015.840,1015.950
583,3.685,1015.840,1015.950
584,3.685,1015.840,1015.950
585,3.685,1015.840,1015.950
586,3.685,1015.840,1015.950
587,3.685,1015.850,1015.950
588,3.685,1015.850,1015.950
589,3.684,1015.850,1015.950
590,3.684,1015.850,1015.950
591,3.684,1015.850,1015.950
592,3.684,1015.850,1015.950
593,3.684,1015.850,1015.950
594,3.684,1015.850,1015.950
595,3.683,1015.850,1015.950
596,3.683,1015.850,1015.950
597,3.683,1015.850,1015.950
598,3.683,1015.850,1015.950
599,3.683,1015.850,1015.950
600,3.683,1015.850,1015.950
601,3.683,1015.850,1015.950
602,3.682,1015.850,1015.950
603,3.682,1015.850,1015.950
604,3.682,1015.850,1015.950
605,3.682,1015.850,1015.950
606,3.682,1015.850,1015.950
607,3.682,1015.850,1015.950
608,3.681,1015.850,1015.950
609,3.681,1015.850,1015.950
610,3.681,1015.850,1015.950
611,3.681,1015.850,1015.950
612,3.681,1015.850,1015.950
613,3.681,1015.850,1015.950
614,3.681,1015.850,1015.950
615,3.680,1015.850,1015.950
616,3.680,1015.860,1015.950
617,3.680,1015.860,1015.950
618,3.680,1015.860,1015.950
619,3.680,1015.860,1015.950
620,3.680,1015.860,1015.950
621,3.680,1015.860,1015.950
622,3.679,1015.860,1015.950
623,3.679,1015.860,1015.950
624,3.679,1015.860,1015.950
625,3.679,1015.860,1015.950
626,3.679,1015.860,1015.950
627,3.679,1015.860,1015.950
628,3.679,1015.860,1015.950
629,3.678,1015.860,1015.950
630,3.678,1015.860,1015.950
631,3.678,1015.860,1015.950
632,3.678,1015.860,1015.950
633,3.678,1015.860,1015.950
634,3.678,1015.860,1015.950
635,3.678,1015.860,1015.950
636,3.677,1015.860,1015.950
637,3.677,1015.860,1015.950
638,3.677,1015.860,1015.950
639,3.677,1015.860,1015.950
640,3.677,1015.860,1015.950
641,3.677,1015.860,1015.950
642,3.677,1015.860,1015.950
643,3.676,1015.860,1015.950
644,3.676,1015.860,1015.950
645,3.676,1015.860,1015.950
646,3.676,1015.860,1015.950
647,3.676,1015.860,1015.950
648,3.676,1015.860,1015.950
649,3.676,1015.860,1015.950
650,3.676,1015.870,1015.950
651,3.675,1015.870,1015.950
652,3.675,1015.870,1015.950
653,3.675,1015.870,1015.950
654,3.675,1015.870,1015.950
655,3.675,1015.870,1015.950
656,3.675,1015.870,1015.950
657,3.675,1015.870,1015.950
658,3.674,1015.870,1015.950
659,3.674,1015.870,1015.950
660,3.674,1015.870,1015.950
661,3.674,1015.870,1015.950
662,3.674,1015.870,1015.950
663,3.674,1015.870,1015.950
664,3.674,1015.870,1015.950
665,3.674,1015.870,1015.950
666,3.673,1015.870,1015.950
667,3.673,1015.870,1015.950
668,3.673,1015.870,1015.950
669,3.673,1015.870,1015.950
670,3.673,1015.870,1015.950
671,3.673,1015.870,1015.950
672,3.673,1015.870,1015.950
673,3.672,1015.870,1015.950
674,3.672,1015.870,1015.950
675,3.672,1015.870,1015.950
676,3.672,1015.870,1015.950
677,3.672,1015.870,1015.950
678,3.672,1015.870,1015.950
679,3.672,1015.870,1015.950
680,3.672,1015.870,1015.950
681,3.671,1015.870,1015.950
682,3.671,1015.870,1015.950
683,3.671,1015.870,1015.950
684,3.671,1015.870,1015.950
685,3.671,1015.870,1015.950
686,3.671,1015.870,1015.950
687,3.671,1015.870,1015.950
688,3.671,1015.870,1015.950
689,3.670,1015.880,1015.950
690,3.670,1015.880,1015.950
691,3.670,1015.880,1015.950
692,3.670,1015.880,1015.950
693,3.670,1015.880,1015.950
694,3.670,1015.880,1015.950
695,3.670,1015.880,1015.950
696,3.670,1015.880,1015.960
697,3.669,1015.880,1015.960
698,3.669,1015.880,1015.960
699,3.669,1015.880,1015.960
700,3.669,1015.880,1015.960
701,3.669,1015.880,1015.960
702,3.669,1015.880,1015.960
703,3.669,1015.880,1015.960
704,3.669,1015.880,1015.960
705,3.669,1015.880,1015.960
706,3.668,1015.880,1015.960
707,3.668,1015.880,1015.960
708,3.668,1015.880,1015.960
709,3.668,1015.880,1015.960
710,3.668,1015.880,1015.960
711,3.668,1015.880,1015.960
712,3.668,1015.880,1015.960
713,3.668,1015.880,1015.960
714,3.667,1015.880,1015.960
715,3.667,1015.880,1015.960
716,3.667,1015.880,1015.960
717,3.667,1015.880,1015.960
718,3.667,1015.880,1015.960
719,3.667,1015.880,1015.960
720,3.667,1015.880,1015.960
721,3.667,1015.880,1015.960
722,3.667,1015.880,1015.960
