Time,Temperature,Heat Flow
[s],[K],[W/g]
0,298.33,-1.44E-02
1.9998,298.33,-1.31E-02
4.0002,298.33839,-1.35E-02
6,298.34741,-1.35E-02
7.9998,298.35802,-1.38E-02
10.0002,298.3747,-1.34E-02
12,298.40133,-1.16E-02
13.9998,298.43741,-1.25E-02
16.0002,298.49239,-1.00E-02
18,298.5673,-6.83E-03
19.9998,298.6668,-3.90E-03
22.0002,298.7912,1.26E-03
24,298.9429,8.09E-03
25.9998,299.1249,1.31E-02
28.0002,299.34043,2.30E-02
30,299.5878,3.28E-02
31.9998,299.87375,4.44E-02
34.0002,300.19541,5.71E-02
36,300.55643,7.01E-02
37.9998,300.95107,8.48E-02
40.0002,301.3823,9.99E-02
42,301.85225,0.11673
43.9998,302.36292,0.13411
46.0002,302.905,0.15236
48,303.48133,0.17034
49.9998,304.08731,0.1896
52.0002,304.72177,0.21015
54,305.38497,0.22722
55.9998,306.0729,0.24796
58.0002,306.78866,0.26718
60,307.52859,0.28545
61.9998,308.28897,0.30458
64.0002,309.07279,0.32332
66,309.87134,0.33787
67.9998,310.68579,0.35821
70.0002,311.51541,0.37366
72,312.35856,0.39011
73.9998,313.21371,0.40476
76.0002,314.0768,0.419
78,314.94792,0.43101
79.9998,315.82395,0.44487
82.0002,316.70538,0.45621
84,317.5912,0.46672
85.9998,318.48011,0.47469
88.0002,319.36866,0.48522
90,320.25913,0.49138
91.9998,321.14626,0.49939
94.0002,322.03364,0.50769
96,322.91541,0.50989
97.9998,323.79698,0.51607
100.0002,324.67338,0.51857
102,325.54562,0.52263
103.9998,326.41267,0.52683
106.0002,327.27761,0.52805
108,328.13679,0.52927
109.9998,328.98967,0.53134
112.0002,329.83479,0.53327
114,330.67513,0.53162
115.9998,331.50869,0.53169
118.0002,332.33882,0.5329
120,333.1669,0.5334
121.9998,333.9851,0.53059
124.0002,334.79621,0.53051
126,335.59934,0.52913
127.9998,336.40321,0.52774
130.0002,337.20105,0.52578
132,337.99369,0.52453
133.9998,338.78066,0.52328
136.0002,339.56257,0.52174
138,340.33939,0.51961
139.9998,341.11172,0.51633
142.0002,341.87893,0.51405
144,342.63848,0.5109
145.9998,343.39261,0.51049
148.0002,344.14356,0.50907
150,344.89328,0.50807
151.9998,345.64084,0.5065
154.0002,346.38226,0.50405
156,347.12128,0.50073
157.9998,347.85672,0.50132
160.0002,348.58957,0.49973
162,349.3192,0.49901
163.9998,350.0472,0.49843
166.0002,350.77205,0.49757
168,351.49664,0.49699
169.9998,352.21807,0.49553
172.0002,352.9388,0.49553
174,353.65869,0.49509
175.9998,354.37615,0.49407
178.0002,355.09566,0.49144
180,355.81318,0.48998
181.9998,356.5308,0.48852
184.0002,357.24656,0.48544
186,357.96043,0.48456
187.9998,358.675,0.48323
190.0002,359.38884,0.48103
192,360.1049,0.47648
193.9998,360.8218,0.47383
196.0002,361.54018,0.47147
198,362.25756,0.46896
199.9998,362.97203,0.4663
202.0002,363.68434,0.46334
204,364.40031,0.46111
205.9998,365.11459,0.46006
208.0002,365.8261,0.4568
210,366.5381,0.4556
211.9998,367.25262,0.4538
214.0002,367.96802,0.45097
216,368.68071,0.44918
217.9998,369.3942,0.44723
220.0002,370.10995,0.44734
222,370.82675,0.44584
223.9998,371.54015,0.44462
226.0002,372.25307,0.44296
228,372.96203,0.4413
229.9998,373.67087,0.44185
232.0002,374.37859,0.44004
234,375.09,0.4397
235.9998,375.80005,0.43848
238.0002,376.50548,0.43814
240,377.20821,0.43781
241.9998,377.9101,0.43791
244.0002,378.6112,0.43757
246,379.31141,0.43679
247.9998,380.01054,0.43704
250.0002,380.71159,0.43715
252,381.40675,0.438
253.9998,382.10044,0.43646
256.0002,382.79505,0.43612
258,383.48944,0.43547
259.9998,384.18193,0.43662
262.0002,384.87151,0.43418
264,385.56097,0.43414
265.9998,386.24815,0.43528
268.0002,386.93179,0.43389
270,387.6141,0.43503
271.9998,388.29738,0.43738
274.0002,388.98148,0.43778
276,389.66682,0.44028
277.9998,390.3498,0.44039
280.0002,391.02956,0.44349
282,391.70587,0.44465
283.9998,392.38193,0.4467
286.0002,393.05585,0.44906
288,393.7317,0.45068
289.9998,394.40675,0.4544
292.0002,395.08179,0.45692
294,395.75679,0.45929
295.9998,396.43223,0.46393
298.0002,397.10928,0.46646
300,397.78333,0.46884
301.9998,398.45647,0.47273
304.0002,399.1272,0.47693
306,399.80028,0.48023
307.9998,400.47323,0.48429
310.0002,401.14531,0.48881
312,401.81385,0.49121
313.9998,402.48223,0.4924
316.0002,403.15085,0.49526
318,403.82277,0.49842
319.9998,404.49464,0.50038
322.0002,405.16749,0.50067
324,405.83882,0.50247
325.9998,406.50861,0.50352
328.0002,407.17903,0.5032
330,407.84874,0.50546
331.9998,408.51851,0.50408
334.0002,409.18818,0.50345
336,409.85882,0.5016
337.9998,410.5279,0.49913
340.0002,411.19569,0.49667
342,411.86385,0.49557
343.9998,412.53415,0.49418
346.0002,413.20439,0.49201
348,413.87516,0.49015
349.9998,414.54357,0.48843
352.0002,415.21325,0.48687
354,415.88354,0.48378
355.9998,416.55492,0.48083
358.0002,417.22388,0.47957
360,417.89182,0.47907
361.9998,418.55757,0.47627
364.0002,419.22616,0.47516
366,419.89433,0.47343
367.9998,420.56438,0.47293
370.0002,421.23243,0.46981
372,421.90233,0.46962
373.9998,422.56969,0.46819
376.0002,423.23951,0.46645
378,423.90952,0.46549
379.9998,424.58046,0.46452
382.0002,425.25185,0.46386
384,425.92003,0.46258
385.9998,426.58736,0.46083
388.0002,427.25326,0.45985
390,427.91962,0.45826
391.9998,428.58633,0.45806
394.0002,429.25205,0.45677
396,429.92052,0.45672
397.9998,430.58728,0.45543
400.0002,431.2552,0.45445
402,431.91923,0.45409
403.9998,432.5849,0.45388
406.0002,433.25156,0.45321
408,433.91862,0.4516
409.9998,434.58551,0.45139
412.0002,435.24939,0.45103
414,435.91395,0.45113
415.9998,436.57859,0.45014
418.0002,437.24408,0.45009
420,437.90797,0.45034
421.9998,438.57031,0.45154
424.0002,439.23249,0.44867
426,439.89415,0.44908
427.9998,440.5562,0.45012
430.0002,441.21708,0.45085
432,441.88005,0.45158
433.9998,442.54393,0.45184
436.0002,443.20715,0.45415
438,443.86903,0.45488
439.9998,444.52949,0.45483
442.0002,445.19249,0.45572
444,445.85659,0.45677
445.9998,446.52134,0.45892
448.0002,447.18449,0.4595
450,447.84762,0.46056
451.9998,448.51198,0.46193
454.0002,449.17764,0.46235
456,449.84318,0.46483
457.9998,450.50646,0.46573
460.0002,451.1678,0.46838
462,451.83177,0.47023
463.9998,452.4972,0.47003
466.0002,453.16428,0.47236
468,453.83082,0.47454
469.9998,454.49787,0.47624
472.0002,455.16456,0.477
474,455.82933,0.47823
475.9998,456.49366,0.48073
478.0002,457.15974,0.48101
480,457.82608,0.48225
481.9998,458.49433,0.48332
484.0002,459.16329,0.48504
486,459.83216,0.48564
487.9998,460.4997,0.48656
490.0002,461.1661,0.48733
492,461.83402,0.48681
493.9998,462.50234,0.48774
496.0002,463.17084,0.48659
498,463.84066,0.48735
499.9998,464.51051,0.48476
502.0002,465.17998,0.4852
504,465.84795,0.48581
505.9998,466.51434,0.48561
508.0002,467.18138,0.48349
510,467.84941,0.48185
511.9998,468.51831,0.47876
514.0002,469.18779,0.47663
516,469.85575,0.47675
517.9998,470.5221,0.47413
520.0002,471.18567,0.47087
522,471.85092,0.47001
523.9998,472.5182,0.46723
526.0002,473.18734,0.46541
528,473.85848,0.46262
529.9998,474.52539,0.45869
532.0002,475.19361,0.45573
534,475.86079,0.45373
535.9998,476.52813,0.45206
538.0002,477.19749,0.44812
540,477.86516,0.44628
541.9998,478.53392,0.44589
544.0002,479.20036,0.44275
546,479.86541,0.44107
547.9998,480.53149,0.44019
550.0002,481.20018,0.43899
552,481.8679,0.4386
553.9998,482.53382,0.43804
556.0002,483.19872,0.43667
558,483.86433,0.43677
559.9998,484.5301,0.43605
562.0002,485.19226,0.43532
564,485.85605,0.43493
565.9998,486.52144,0.43665
568.0002,487.18792,0.4374
570,487.85205,0.43913
571.9998,488.51743,0.43857
574.0002,489.18425,0.4385
576,489.8532,0.43925
577.9998,490.51898,0.44065
580.0002,491.18454,0.43878
582,491.85046,0.43954
583.9998,492.51695,0.44062
586.0002,493.18195,0.43891
588,493.84654,0.43604
589.9998,494.51041,0.43581
592.0002,495.1768,0.43574
594,495.84044,0.43369
595.9998,496.50402,0.43164
598.0002,497.1657,0.43008
600,497.83079,0.42655
601.9998,498.49705,0.42416
604.0002,499.1653,0.42045
606,499.83154,0.41657
607.9998,500.49574,0.41368
610.0002,501.16072,0.4088
612,501.82602,0.40391
613.9998,502.49493,0.40051
616.0002,503.16,0.39429
618,503.82661,0.38922
619.9998,504.49161,0.38564
622.0002,505.15743,0.38073
624,505.82559,0.3773
625.9998,506.49077,0.37088
628.0002,507.15838,0.36695
630,507.82362,0.36384
631.9998,508.48913,0.35806
634.0002,509.15415,0.35245
636,509.81677,0.35082
637.9998,510.48397,0.3452
640.0002,511.14905,0.34207
642,511.8153,0.33643
643.9998,512.48107,0.33446
646.0002,513.14764,0.32914
648,513.81311,0.32549
649.9998,514.47842,0.32184
652.0002,515.1438,0.31969
654,515.8089,0.31619
655.9998,516.4737,0.31403
658.0002,517.13928,0.31187
660,517.8039,0.30837
661.9998,518.46993,0.30788
664.0002,519.13511,0.30403
666,519.8013,0.3027
667.9998,520.46684,0.30086
670.0002,521.13452,0.29717
672,521.80318,0.29684
673.9998,522.47221,0.29668
676.0002,523.13885,0.29568
678,523.80523,0.29417
679.9998,524.47349,0.29367
682.0002,525.14241,0.29317
684,525.81264,0.29132
685.9998,526.47629,0.29234
688.0002,527.14059,0.29116
690,527.80528,0.29065
691.9998,528.47452,0.29167
694.0002,529.14267,0.29219
696,529.80872,0.29151
697.9998,530.47398,0.29101
700.0002,531.13975,0.29305
702,531.80718,0.2939
703.9998,532.47805,0.29408
706.0002,533.14787,0.29579
708,533.81677,0.29698
709.9998,534.48192,0.29784
712.0002,535.15018,0.30006
714,535.81849,0.30314
715.9998,536.48954,0.30247
718.0002,537.15941,0.30607
720,537.82746,0.30728
721.9998,538.49497,0.30934
724.0002,539.15885,0.31158
726,539.82594,0.31108
727.9998,540.49356,0.31383
730.0002,541.16346,0.31573
732,541.83095,0.31575
733.9998,542.49769,0.318
736.0002,543.16516,0.31887
738,543.83164,0.31958
739.9998,544.49746,0.32303
742.0002,545.16131,0.32391
744,545.82761,0.32462
745.9998,546.4939,0.32792
748.0002,547.1639,0.32897
750,547.83246,0.33038
751.9998,548.4991,0.33161
754.0002,549.16082,0.33405
756,549.82382,0.33528
757.9998,550.4871,0.33738
760.0002,551.15218,0.33862
762,551.81736,0.33986
763.9998,552.48436,0.34249
766.0002,553.15126,0.34321
768,553.8167,0.34584
769.9998,554.48229,0.34778
772.0002,555.14693,0.34868
774,555.81297,0.3515
775.9998,556.47835,0.35431
778.0002,557.14454,0.35661
780,557.80943,0.35839
781.9998,558.47439,0.36243
784.0002,559.13892,0.36421
786,559.80316,0.36634
787.9998,560.46657,0.3697
790.0002,561.13138,0.37201
792,561.79541,0.3759
793.9998,562.46025,0.3777
796.0002,563.12364,0.38159
798,563.78962,0.38357
799.9998,564.45403,0.38694
802.0002,565.11957,0.39085
804,565.78308,0.39354
805.9998,566.44876,0.39692
808.0002,567.11222,0.39856
810,567.77739,0.40442
811.9998,568.44282,0.40659
814.0002,569.10734,0.40929
816,569.76869,0.41322
817.9998,570.4301,0.41488
820.0002,571.09551,0.4197
822,571.76226,0.42347
823.9998,572.42571,0.42619
826.0002,573.09066,0.42874
828,573.7562,0.4304
829.9998,574.4238,0.43313
832.0002,575.08954,0.43657
834,575.75251,0.43913
835.9998,576.41607,0.44186
838.0002,577.07874,0.44425
840,577.74394,0.44788
841.9998,578.4101,0.45187
844.0002,579.07744,0.45285
846,579.74502,0.45525
847.9998,580.41313,0.45818
850.0002,581.07936,0.45916
852,581.74492,0.46246
853.9998,582.40731,0.46398
856.0002,583.07466,0.46799
858,583.73967,0.47058
859.9998,584.40641,0.47318
862.0002,585.07057,0.47524
864,585.73665,0.47696
865.9998,586.40349,0.48063
868.0002,587.0701,0.48449
870,587.73595,0.48817
871.9998,588.40059,0.49096
874.0002,589.06485,0.4968
876,589.72989,0.50014
877.9998,590.39728,0.50491
880.0002,591.06303,0.50934
882,591.73029,0.51448
883.9998,592.39687,0.52107
886.0002,593.0653,0.52784
888,593.73277,0.53426
889.9998,594.39964,0.54087
892.0002,595.06495,0.54928
894,595.7302,0.55969
895.9998,596.39635,0.5665
898.0002,597.06161,0.57783
900,597.72652,0.58808
901.9998,598.39354,0.60124
904.0002,599.06023,0.61278
906,599.7282,0.62434
907.9998,600.39575,0.63791
910.0002,601.06285,0.65076
912,601.72775,0.66688
913.9998,602.38951,0.68248
916.0002,603.05239,0.69991
918,603.71798,0.71682
919.9998,604.38666,0.73411
922.0002,605.05559,0.75432
924,605.72212,0.77474
925.9998,606.38607,0.79391
928.0002,607.0488,0.81673
930,607.71344,0.83995
931.9998,608.37944,0.86392
934.0002,609.04392,0.88847
936,609.70754,0.91085
937.9998,610.37129,0.93728
940.0002,611.03903,0.96684
942,611.70488,0.99588
943.9998,612.36949,1.02441
946.0002,613.03136,1.05498
948,613.69747,1.08907
949.9998,614.36405,1.12137
952.0002,615.03292,1.15498
954,615.69813,1.19285
955.9998,616.36285,1.22838
958.0002,617.02477,1.26944
960,617.68874,1.30964
961.9998,618.3519,1.35007
964.0002,619.01682,1.39166
966,619.68321,1.43715
967.9998,620.34743,1.48122
970.0002,621.01165,1.52718
972,621.67584,1.57559
973.9998,622.34246,1.62536
976.0002,623.00961,1.67389
978,623.67387,1.72542
979.9998,624.33792,1.77738
982.0002,625.00072,1.83088
984,625.66321,1.88574
985.9998,626.32631,1.94158
988.0002,626.98974,1.99916
990,627.65446,2.05606
991.9998,628.3202,2.11563
994.0002,628.98577,2.17526
996,629.65166,2.23627
997.9998,630.31538,2.29492
1000.0002,630.98018,2.35792
1002,631.64262,2.41858
1003.9998,632.30851,2.48172
1006.0002,632.9713,2.54345
1008,633.63762,2.60879
1009.9998,634.3007,2.66992
1012.0002,634.9658,2.7315
1014,635.63062,2.7911
1015.9998,636.29762,2.84928
1018.0002,636.96323,2.9064
1020,637.63028,2.95724
1021.9998,638.29561,3.01113
1024.0002,638.96318,3.06042
1026,639.62831,3.09983
1027.9998,640.29408,3.13555
1030.0002,640.95874,3.1685
1032,641.62341,3.18874
1033.9998,642.28839,3.20825
1036.0002,642.95402,3.22253
1038,643.62025,3.24528
1039.9998,644.28739,3.27238
1042.0002,644.95505,3.29631
1044,645.62351,3.30786
1045.9998,646.29065,3.31867
1048.0002,646.95806,3.34832
1050,647.62515,3.36763
1051.9998,648.2939,3.36605
1054.0002,648.96261,3.40464
1056,649.6312,3.43705
1057.9998,650.30012,3.46327
1060.0002,650.9679,3.47155
1062,651.63498,3.46396
1063.9998,652.29867,3.46411
1066.0002,652.96459,3.4404
1068,653.63379,3.42066
1069.9998,654.30433,3.39577
1072.0002,654.97438,3.3699
1074,655.64265,3.34495
1075.9998,656.31049,3.28654
1078.0002,656.98023,3.26037
1080,657.64964,3.25926
1081.9998,658.32077,3.29448
1084.0002,658.99125,3.27835
1086,659.66185,3.19916
1087.9998,660.33064,3.14808
1090.0002,660.99728,3.16137
1092,661.66513,3.17163
1093.9998,662.33459,3.17713
1096.0002,663.00557,3.14884
1098,663.67487,3.09145
1099.9998,664.34302,3.04049
1102.0002,665.01282,2.98928
1104,665.68234,2.91848
1105.9998,666.35126,2.84683
1108.0002,667.019,2.78371
1110,667.68897,2.7025
1111.9998,668.36038,2.62349
1114.0002,669.03167,2.54881
1116,669.70288,2.46712
1117.9998,670.37392,2.38552
1120.0002,671.04454,2.3019
1122,671.7129,2.21221
1123.9998,672.38159,2.12318
1126.0002,673.05259,2.03444
1128,673.72472,1.95119
1129.9998,674.39588,1.86532
1132.0002,675.06695,1.78109
1134,675.7371,1.69889
1135.9998,676.40723,1.61755
1138.0002,677.07661,1.54095
1140,677.74703,1.4631
1141.9998,678.41797,1.38961
1144.0002,679.0869,1.31681
1146,679.75464,1.24411
1147.9998,680.42228,1.17385
1150.0002,681.09017,1.10545
1152,681.75977,1.03794
1153.9998,682.42772,0.97384
1156.0002,683.09721,0.9122
1158,683.7651,0.85087
1159.9998,684.43251,0.79337
1162.0002,685.098,0.74027
1164,685.76498,0.68692
1165.9998,686.43257,0.63623
1168.0002,687.09975,0.58822
1170,687.76466,0.5421
1171.9998,688.42995,0.50023
1174.0002,689.09483,0.45772
1176,689.76026,0.41809
1177.9998,690.42459,0.38096
1180.0002,691.08958,0.34594
1182,691.75385,0.31264
1183.9998,692.4192,0.28009
1186.0002,693.08584,0.25162
1188,693.75169,0.2239
1189.9998,694.41751,0.19694
1192.0002,695.08113,0.17151
1194,695.74503,0.14841
1195.9998,696.40811,0.12824
1198.0002,697.07193,0.10745
1200,697.73498,8.80E-02
1201.9998,698.39808,6.84E-02
1204.0002,699.06159,5.38E-02
1206,699.72703,3.53E-02
1207.9998,700.39264,2.05E-02
1210.0002,701.06028,5.92E-03
1212,701.72316,-5.73E-03
1213.9998,702.38692,-1.70E-02
1216.0002,703.04813,-2.83E-02
1218,703.7108,-3.98E-02
1219.9998,704.37264,-4.79E-02
1222.0002,705.03674,-5.79E-02
1224,705.70166,-6.58E-02
1225.9998,706.36584,-7.26E-02
1228.0002,707.02877,-8.12E-02
1230,707.69026,-8.56E-02
1231.9998,708.35075,-9.00E-02
1234.0002,709.01146,-9.49E-02
1236,709.67331,-9.93E-02
1237.9998,710.33919,-0.10292
1240.0002,711.00485,-0.10278
1242,711.67149,-0.10324
1243.9998,712.33731,-0.10191
1246.0002,713.00356,-0.10077
1248,713.66747,-0.10003
1249.9998,714.33193,-0.10288
1252.0002,714.99721,-0.10294
1254,715.66225,-0.1038
1255.9998,716.32812,-0.10366
1258.0002,716.99344,-0.10152
1260,717.65877,-0.10077
1261.9998,718.32362,-0.10223
1264.0002,718.98906,-0.1037
1266,719.65893,-0.10777
1267.9998,720.32234,-0.11365
1270.0002,720.9841,-0.11894
1272,721.64262,-0.12383
1273.9998,722.30707,-0.12873
1276.0002,722.97274,-0.13162
1278,723.63921,-0.13754
1279.9998,724.30475,-0.14447
1282.0002,724.96793,-0.14959
1284,725.63241,-0.15311
1285.9998,726.2961,-0.15703
1288.0002,726.96161,-0.15994
1290,727.62756,-0.16307
1291.9998,728.29454,-0.16579
1294.0002,728.96107,-0.16831
1296,729.6271,-0.17286
1297.9998,730.29195,-0.17377
1300.0002,730.95757,-0.1763
1302,731.62264,-0.1764
1303.9998,732.28839,-0.17731
1306.0002,732.9549,-0.17964
1308,733.62051,-0.18096
1309.9998,734.28672,-0.1833
1312.0002,734.95384,-0.18625
1314,735.62397,-0.18656
1315.9998,736.29325,-0.18586
1318.0002,736.96082,-0.18637
1320,737.62798,-0.18627
1321.9998,738.29644,-0.18903
1324.0002,738.96551,-0.1871
1326,739.63408,-0.18659
1327.9998,740.30112,-0.18751
1330.0002,740.96708,-0.18762
1332,741.63228,-0.1867
1333.9998,742.29887,-0.18763
1336.0002,742.96643,-0.18835
1338,743.63329,-0.18927
1339.9998,744.30108,-0.18713
1342.0002,744.96731,-0.18826
1344,745.63535,-0.18836
1345.9998,746.30169,-0.18847
1348.0002,746.96987,-0.18652
1350,747.63751,-0.18457
1351.9998,748.30364,-0.18673
1354.0002,748.97039,-0.18519
1356,749.63775,-0.18571
1357.9998,750.30489,-0.18561
1360.0002,750.97064,-0.1853
1362,751.63484,-0.1854
1363.9998,752.30144,-0.18468
1366.0002,752.96654,-0.18355
1368,753.6321,-0.18468
1369.9998,754.2981,-0.18396
1372.0002,754.96567,-0.18365
1374,755.63307,-0.18499
1375.9998,756.2991,-0.18593
1378.0002,756.96498,-0.18437
1380,757.63151,-0.18303
1381.9998,758.29818,-0.1823
1384.0002,758.96401,-0.18365
1386,759.62946,-0.18333
1387.9998,760.29613,-0.18406
1390.0002,760.96262,-0.18312
1392,761.63077,-0.18489
1393.9998,762.29774,-0.18728
1396.0002,762.96472,-0.18406
1398,763.62916,-0.18416
1399.9998,764.2972,-0.18301
1402.0002,764.96331,-0.18144
1404,765.6311,-0.18217
1405.9998,766.2932,-0.17977
1408.0002,766.95925,-0.17799
1410,767.62348,-0.17746
1411.9998,768.28907,-0.17609
1414.0002,768.95361,-0.17661
1416,769.61838,-0.17713
1417.9998,770.28446,-0.17513
1420.0002,770.94964,-0.17439
1422,771.61693,-0.17511
1423.9998,772.28136,-0.17647
1426.0002,772.94594,-0.17699
1428,773.61315,-0.1752
1429.9998,774.28057,-0.17634
1432.0002,774.94969,-0.17686
1434,775.61534,-0.1757
1435.9998,776.28161,-0.17664
1438.0002,776.94871,-0.17547
1440,777.61388,-0.17536
1441.9998,778.27934,-0.17461
1444.0002,778.9436,-0.17513
1446,779.60808,-0.17396
1447.9998,780.2729,-0.17511
1450.0002,780.93787,-0.17309
1452,781.60606,-0.17425
1453.9998,782.27367,-0.17646
1456.0002,782.94077,-0.1755
1458,783.60554,-0.17496
1459.9998,784.27057,-0.17569
1462.0002,784.93623,-0.17579
1464,785.60455,-0.17525
1465.9998,786.27228,-0.17683
1468.0002,786.94001,-0.17629
1470,787.60816,-0.17617
1471.9998,788.2757,-0.17648
1474.0002,788.94534,-0.17509
1476,789.61141,-0.17455
1477.9998,790.27767,-0.17592
1480.0002,790.94113,-0.17431
1482,791.60485,-0.17334
1483.9998,792.27012,-0.17173
1486.0002,792.9359,-0.17481
1488,793.60441,-0.17512
1489.9998,794.27224,-0.175
1492.0002,794.9387,-0.17275
1494,795.60311,-0.17327
1495.9998,796.27054,-0.17358
1498.0002,796.93982,-0.1756
1500,797.61007,-0.1742
1501.9998,798.27854,-0.17086
1504.0002,798.94854,-0.17374
1506,799.61738,-0.17384
1507.9998,800.28428,-0.17179
1510.0002,800.95067,-0.17188
1512,801.61743,-0.16875
1513.9998,802.28546,-0.16863
1516.0002,802.95129,-0.16893
1518,803.61531,-0.16902
1519.9998,804.28003,-0.16998
1522.0002,804.94503,-0.16727
1524,805.61241,-0.16844
1525.9998,806.28139,-0.16723
1528.0002,806.95023,-0.16689
1530,807.61834,-0.16698
1531.9998,808.28447,-0.16556
1534.0002,808.95149,-0.16716
1536,809.61929,-0.1679
1537.9998,810.28818,-0.16258
1540.0002,810.95713,-0.16245
1542,811.62547,-0.16254
1543.9998,812.29554,-0.16284
1546.0002,812.96472,-0.16163
1548,813.63246,-0.15846
1549.9998,814.29769,-0.15768
1552.0002,814.96277,-0.15646
