Time,Mass (g),T Back (K),T Top (K)
0.0,64.8,293.0,293.0
1.0,64.8,293.0,354.068663
2.0,64.799998704,293.0,418.03629
3.01,64.799988336,293.0,459.80996
4.01,64.79994168,293.0,493.18608
5.01,64.79979588,293.0,522.02193
6.01,64.799437536,293.0,547.1392900000001
7.01,64.79869427999999,293.0,568.7403899999999
8.01,64.7973432,293.0,587.66798
9.01,64.795113432,293.0,604.62725
10.01,64.79167968,293.0,619.89816
11.01,64.78663823999999,293.0,633.6056100000001
12.01,64.779470064,293.0,645.77835
13.01,64.769523912,293.0,656.47333
14.01,64.756051992,293.0,665.69029
15.01,64.738354464,293.0,673.39624
16.01,64.7159868,293.0,679.55477
17.01,64.68892372799999,293.0,684.2722
18.0,64.657726416,293.0,687.79735
19.0,64.62290159999999,293.0,690.44746
20.0,64.584957312,293.0,692.50756
21.0,64.544678928,293.0,694.18532
22.0,64.502546616,293.0,695.64258
23.0,64.45890252,293.0,696.98663
24.0,64.413977328,293.0,698.28144
25.0,64.367928504,293.0,699.56557
26.0,64.320877224,293.0,700.68635
27.0,64.272866904,293.0,702.02716
28.0,64.22395586399999,293.0,703.38805
29.0,64.174240008,293.0,704.7600199999999
30.0,64.123817832,293.000001,705.99522
31.0,64.072740528,293.000001,707.41608
32.0,64.021067712,293.000002,708.85096
33.0,63.968902416,293.000003,710.20937
34.0,63.91632888,293.000004,711.59802
35.0,63.863396351999995,293.000007,713.06003
36.0,63.810192312,293.000011,714.47362
37.0,63.756792575999995,293.000017,715.84193
38.0,63.70323732,293.000026,717.29683
39.0,63.649591343999994,293.00004,718.7153000000001
40.0,63.595901952,293.000058,720.05083
41.0,63.54219636,293.000084,721.46667
42.0,63.488513448,293.000119,722.85328
43.0,63.434879136,293.000166,724.13613
44.01,63.381037463999995,293.000229,725.49236
45.01,63.327281975999995,293.000311,726.82412
46.01,63.273890016,293.000416,728.0483300000001
47.01,63.220596551999996,293.000551,729.31138
48.01,63.167420375999995,293.000721,730.55919
49.01,63.11436732,293.00093400000003,731.72974
50.01,63.061432847999995,293.001197,732.8978099999999
51.01,63.008634455999996,293.00152,734.0681099999999
52.01,62.955978624,293.001912,735.18473
53.01,62.903454984,293.002386,736.26217
54.01,62.851079735999996,293.002953,737.3579500000001
55.01,62.798860656,293.003627,738.42193
56.01,62.74678608,293.004424,739.41995
57.01,62.69486508,293.005358,740.44427
58.01,62.64310932,293.006449,741.45099
59.01,62.591510376,293.007713,742.39441
60.01,62.54006500799999,293.009172,743.34322
61.01,62.488788768,293.010847,744.28916
62.01,62.437680359999995,293.012759,745.19708
63.01,62.386725528,293.014933,746.07106
64.01,62.335938528,293.017394,746.95967
65.01,62.285323248,293.020167,747.83091
66.01,62.234867376,293.02328,748.6465000000001
67.01,62.184572855999996,293.026761,749.47654
68.01,62.134450703999995,293.030639,750.2993799999999
69.01,62.084496384,293.034945,751.08887
70.01,62.034695639999995,293.03971,751.85394
71.01,61.985064023999996,293.044966,752.6290799999999
72.01,61.935602832,293.050745,753.39125
73.0,61.88654404799999,293.057049,754.10451
74.0,61.837643376,293.063939,754.82555
75.0,61.788663647999996,293.071489,755.54721
76.0,61.739849807999995,293.0797,756.24728
77.0,61.691185008,293.08861,756.9166399999999
78.0,61.64268155999999,293.098254,757.59638
79.0,61.594343352,293.10867,758.26905
80.0,61.54616066399999,293.119894,758.91164
81.0,61.498126368,293.131964,759.54285
82.0,61.450252127999995,293.144918,760.17957
83.0,61.402537943999995,293.158793,760.8067699999999
84.0,61.354970208,293.173628,761.39993
85.0,61.307551511999996,293.189459,761.99721
86.0,61.260288984,293.206324,762.5933299999999
87.0,61.213181328,293.224262,763.1766
88.0,61.166213639999995,293.24331,763.73236
89.0,61.119393695999996,293.263504,764.2941000000001
90.0,61.072726032,293.284883,764.85288
91.0,61.026206112,293.307482,765.39755
92.0,60.97982097599999,293.331339,765.9201499999999
93.0,60.933582288000004,293.356488,766.4487799999999
94.0,60.887490048,293.382966,766.97426
95.0,60.841540368,293.410809,767.4836700000001
96.0,60.795721584,293.44005,767.9769200000001
97.0,60.750045359999994,293.470724,768.47396
98.0,60.704511696,293.502865,768.96839
99.0,60.659114759999994,293.536505,769.44822
100.0,60.613846128,293.571678,769.9127100000001
101.0,60.568714871999994,293.608415,770.38138
102.0,60.52372164,293.646746,770.84701
103.0,60.478861248,293.686705,771.30054
104.0,60.43412462399999,293.728319,771.73838
105.0,60.38952084,293.771619,772.18101
106.0,60.345050543999996,293.816632,772.62009
107.0,60.300709848,293.863387,773.05029
108.0,60.256489032,293.911911,773.46375
109.0,60.212395871999995,293.962231,773.8819
110.0,60.168432312,294.014371,774.29594
111.0,60.124595112,294.068358,774.7054
112.0,60.08087390399999,294.124215,775.09589
113.0,60.037275816,294.181966,775.49082
114.0,59.993802792,294.241633,775.88171
115.0,59.950453536,294.303239,776.27045
116.0,59.907217032,294.366806,776.64364
117.0,59.864097816,294.432352,777.01371
118.0,59.821100424,294.49989800000003,777.3858399999999
119.0,59.77822356,294.569462,777.7535399999999
120.0,59.735458799999996,294.641066,778.11073
121.0,59.692804847999994,294.714723,778.46095
122.0,59.650267536,294.790452,778.8125600000001
123.0,59.607846863999995,294.868268,779.16086
124.0,59.565538944,294.948188,779.5061499999999
125.0,59.523336,295.03022599999997,779.83547
126.0,59.48124516,295.114395,780.16957
127.0,59.43926707199999,295.200708,780.50115
128.0,59.397401087999995,295.289179,780.82891
129.0,59.355637488,295.379821,781.14697
130.0,59.313979511999996,295.472641,781.46185
131.0,59.272431047999994,295.567652,781.7760900000001
132.0,59.230992095999994,295.664864,782.08878
133.0,59.189656176,295.764287,782.39738
134.0,59.148419399999995,295.865928,782.6929
135.0,59.107288247999996,295.969795,782.99343
136.0,59.066262071999994,296.075895,783.29074
137.0,59.025340871999994,296.184236,783.58609
138.0,58.984514927999996,296.294826,783.87165
139.0,58.943788127999994,296.407666,784.15536
140.0,58.903163711999994,296.522763,784.43919
141.0,58.862641032,296.640121,784.7197699999999
142.0,58.822216848,296.759746,784.99833
143.0,58.781884032,296.88164,785.26867
144.0,58.74165036,297.005804,785.53662
145.0,58.701514536,297.132242,785.80465
146.0,58.661477856,297.260955,786.07281
147.0,58.621532544,297.391948,786.33422
148.0,58.581677952,297.525217,786.58864
149.0,58.54191926399999,297.660764,786.84382
150.0,58.502255831999996,297.798588,787.10026
151.0,58.46268636,297.93869,787.35272
152.0,58.423204368,298.081071,787.59808
153.0,58.3838118,298.225726,787.8413
154.0,58.344511896,298.372654,788.08495
155.0,58.305304008,298.521852,788.32731
156.0,58.266186839999996,298.673321,788.56614
157.0,58.227152616,298.827025,788.80039
158.0,58.188207168,298.982573,789.03139
159.0,58.149350496,299.140248,789.26294
160.01,58.110390144,299.300978,789.49304
161.01,58.071516624,299.463972,789.72277
162.01,58.03291720799999,299.628406,789.94511
163.01,57.994403976,299.795073,790.16521
164.01,57.955977575999995,299.963498,790.38418
165.01,57.91763736,300.133851,790.60307
166.01,57.879380088,300.3064,790.82111
167.01,57.841200576,300.481144,791.03248
168.01,57.80310530399999,300.658077,791.24167
169.01,57.765093623999995,300.837136,791.45013
170.01,57.727165536,301.01777,791.65962
171.01,57.689317152,301.200405,791.86723
172.01,57.651545232,301.385178,792.06955
173.01,57.613854311999994,301.57208,792.26761
174.01,57.576243743999996,301.761105,792.46789
175.01,57.538714823999996,301.951811,792.66719
176.01,57.501263016,302.144251,792.86581
177.01,57.46388508,302.338796,793.05843
178.01,57.426585552,302.535436,793.24805
179.01,57.389364431999994,302.734169,793.43926
180.01,57.352221072,302.934627,793.62939
181.01,57.315154824,303.136611,793.81943
182.01,57.278159208,303.340624,794.00408
183.01,57.241238759999995,303.546667,794.18539
184.01,57.204394128,303.754739,794.36711
185.01,57.16762596,303.964348,794.55006
186.01,57.130932312,304.175501,794.73085
187.01,57.094308,304.388627,794.90988
188.01,57.057754968,304.603721,795.08184
189.01,57.021276455999995,304.820734,795.25574
190.01,56.98487052,305.039018,795.43031
191.01,56.948538455999994,305.258996,795.60372
192.01,56.91227378399999,305.480874,795.77622
193.01,56.876078448,305.70464,795.94221
194.01,56.83995374399999,305.929937,796.10812
195.01,56.80389967199999,306.15652,796.27386
196.01,56.767917528,306.38496399999997,796.4406
197.01,56.732002775999995,306.615274,796.60559
198.01,56.696152823999995,306.847333,796.76822
199.01,56.660372208,307.080463,796.92579
200.01,56.62466027999999,307.315243,797.08415
201.01,56.589017039999995,307.551817,797.24356
202.01,56.553441192,307.79016,797.40141
203.01,56.51792819999999,308.029583,797.55878
204.01,56.482481304,308.270427,797.71169
205.01,56.44710050399999,308.512996,797.86372
206.01,56.411786447999994,308.757273,798.01482
207.01,56.37653913599999,309.002641,798.16651
208.01,56.34135468,309.249331,798.31787
209.01,56.306231136,309.497721,798.46569
210.01,56.271172392,309.747803,798.61282
211.01,56.236178448,309.998956,798.758
212.01,56.201248656,310.251285,798.90327
213.01,56.166382368,310.505245,799.04773
214.01,56.1315744,310.760831,799.19164
215.01,56.096827991999994,311.01736,799.33261
216.01,56.06214379199999,311.275053,799.47272
217.01,56.027522448,311.534313,799.61345
218.01,55.992963312,311.795093,799.75117
219.01,55.958463144,312.056697,799.89009
220.01,55.92402,312.31958,800.02597
221.01,55.889637119999996,312.584004,800.16125
222.01,55.855315151999996,312.84984,800.29583
223.01,55.8210528,313.116345,800.4304
224.01,55.786850711999996,313.384178,800.56377
225.01,55.752704352,313.653501,800.69548
226.01,55.718614368,313.923985,800.82543
227.01,55.684583352,314.195136,800.95446
228.01,55.650610008,314.467684,801.08332
229.01,55.616694984,314.741667,801.21273
230.01,55.582837632,315.016416,801.34129
231.01,55.549032768,315.292077,801.46824
232.01,55.515283632,315.569118,801.59112
233.01,55.48159087199999,315.8474,801.71486
234.01,55.447955136,316.126224,801.83896
235.01,55.414375127999996,316.406296,801.96229
236.01,55.380849551999994,316.687765,802.08565
237.01,55.34737516799999,316.970143,802.20787
238.01,55.313955216,317.253191,802.32756
239.01,55.280589696,317.537589,802.44582
240.01,55.24727925599999,317.823278,802.5637
241.01,55.21402259999999,318.109471,802.68236
242.01,55.180817784,318.396826,802.80086
243.01,55.147662864,318.68564200000003,802.91742
244.01,55.114560432,318.97589,803.03238
245.01,55.081511135999996,319.266948,803.14745
246.01,55.04851368,319.559233,803.26257
247.01,55.01556935999999,319.85302,803.3751
248.01,54.982673639999994,320.147722,803.48787
249.01,54.949827168,320.443266,803.59992
250.01,54.91703123999999,320.740072,803.71031
251.01,54.884285856,321.038032,803.82144
252.01,54.851591664,321.33653300000003,803.93081
253.01,54.818948016,321.636048,804.0417
254.01,54.786351024,321.936788,804.15161
255.01,54.753801335999995,322.23805600000003,804.25883
256.01,54.721300896,322.540135,804.36336
257.01,54.688849704,322.843361,804.46972
258.01,54.656447111999995,323.147164,804.57524
259.01,54.624093767999994,323.45140200000003,804.68167
260.01,54.591785783999995,323.756412,804.78795
261.01,54.559522511999994,324.062149,804.89185
262.01,54.527307192,324.368543,804.99474
263.01,54.495138528,324.675716,805.0973
264.01,54.463017816,324.983657,805.19803
265.01,54.43094376,325.292326,805.29929
266.01,54.398914416000004,325.601804,805.40065
267.01,54.366927839999995,325.912078,805.50143
268.01,54.334987272,326.223062,805.60059
269.01,54.303092064,326.534824,805.69986
270.01,54.271242216,326.847379,805.79886
271.01,54.239437079999995,327.160635,805.89735
272.01,54.20767600799999,327.474639,805.99539
273.01,54.175956408,327.789419,806.09124
274.01,54.144280224,328.104886,806.18673
275.01,54.112648104,328.421057,806.28142
276.01,54.0810594,328.737975,806.37668
277.01,54.049514112,329.055575,806.47158
278.01,54.018011592,329.373853,806.56672
279.01,53.986547951999995,329.692859,806.66176
280.01,53.955126432,330.012542,806.75486
281.01,53.923747031999994,330.33285,806.84682
282.01,53.89240975199999,330.65385200000003,806.93769
283.01,53.86111459199999,330.975519,807.02814
284.01,53.82986090399999,331.297776,807.11972
285.01,53.7986448,331.6207,807.21114
286.01,53.767468871999995,331.944263,807.30096
287.01,53.736332471999994,332.268393,807.39016
288.01,53.705236896,332.59316,807.47882
289.01,53.674181495999996,332.91855499999997,807.56828
290.01,53.643166271999995,333.244483,807.65699
291.01,53.612189279999996,333.571019,807.74589
292.01,53.58124857599999,333.898159,807.83191
293.01,53.550346751999996,334.225803,807.91714
294.01,53.519483808,334.554014,808.00285
295.01,53.488659743999996,334.882797,808.08876
296.01,53.457873912,335.212067,808.17398
297.01,53.427125663999995,335.541884,808.25993
298.01,53.39641176,335.872261,808.3455
299.01,53.365734792,336.20309,808.42929
300.01,53.33509476,336.534429,808.51315
301.01,53.304492311999994,336.866296,808.59653
302.01,53.273926151999994,337.19859099999996,808.67868
303.01,53.243396927999996,337.531368,808.75964
304.01,53.212902048,337.864651,808.8421
305.01,53.18244086399999,338.198332,808.92381
306.01,53.15201596799999,338.532463,809.00483
307.01,53.121626064,338.86706300000003,809.0849
308.01,53.091271152,339.202041,809.16582
309.01,53.06095188,339.537453,809.24615
310.01,53.030666304,339.873317,809.32615
311.01,53.000412479999994,340.20953099999997,809.40635
312.01,52.970192352,340.546146,809.48545
313.01,52.94000592,340.883178,809.56183
314.01,52.909853184,341.220526,809.63901
315.01,52.879734792,341.55825,809.71635
316.01,52.849649448,341.89636,809.79346
317.01,52.819595208,342.234772,809.87155
318.01,52.789572072,342.57354,809.94852
319.01,52.759581336,342.912667,810.02428
320.01,52.72962235199999,343.252054,810.10013
321.01,52.699695768,343.59177,810.17601
322.01,52.669801584,343.93181,810.25138
323.01,52.63993850399999,344.272082,810.32623
324.01,52.610103288,344.612659,810.40017
325.01,52.580299176,344.95351800000003,810.4735
326.01,52.550525519999994,345.294585,810.54678
327.01,52.520782319999995,345.635931,810.61995
328.01,52.491069576,345.977529,810.6927
329.01,52.461387935999994,346.319297,810.76545
330.01,52.431734807999995,346.661312,810.83898
331.01,52.402109544,347.003533,810.91207
332.01,52.372512792,347.345881,810.98368
333.01,52.3429452,347.688426,811.05529
334.01,52.313406768,348.031105,811.12669
335.01,52.283896848,348.373864,811.19694
336.01,52.254416088,348.716714,811.26522
337.01,52.224961895999996,349.059621,811.3354
338.01,52.195533624,349.402772,811.40604
339.01,52.166133216,349.746031,811.47542
340.01,52.136760024,350.089371,811.54481
341.01,52.107414696,350.433015,811.61389
342.01,52.078096584,350.776776,811.68213
343.01,52.04880503999999,351.120657,811.75121
344.01,52.019538768,351.464851,811.82068
345.01,51.990297768,351.809151,811.88882
346.01,51.961082688,352.153593,811.95644
347.01,51.931894176,352.498304,812.02248
348.01,51.902730936,352.843089,812.08803
349.01,51.873593615999994,353.188045,812.15431
350.01,51.84448156799999,353.533266,812.2201
351.01,51.8153922,353.87855,812.28715
352.01,51.786326808,354.224033,812.35335
353.01,51.757285392,354.569757,812.41887
354.01,51.728269248,354.915527,812.48452
355.01,51.699277079999995,355.261508,812.54972
356.01,51.670308888,355.607685,812.61474
357.01,51.641364672,355.953881,812.67988
358.01,51.61244184,356.300327,812.74557
359.01,51.583541688,356.64694,812.80847
360.01,51.554664216,356.993561,812.87032
361.01,51.525810072,357.340445,812.93283
362.01,51.496979256,357.687471,812.99596
363.01,51.468170472,358.034512,813.05935
364.01,51.439384368,358.381802,813.12243
365.01,51.410617703999996,358.72918400000003,813.18547
366.01,51.381872424,359.076585,813.24807
367.01,51.353149175999995,359.424237,813.31006
368.01,51.32444666399999,359.771946,813.37218
369.01,51.295765536000005,360.119704,813.43419
370.01,51.267105792,360.467697,813.49564
371.01,51.238466783999996,360.815717,813.55683
372.01,51.20984591999999,361.163824,813.61614
373.01,51.181244496,361.512139,813.67629
374.01,51.152663808,361.860457,813.73627
375.01,51.124103208,362.20887700000003,813.79592
376.01,51.095562048,362.557458,813.856
377.01,51.067040975999994,362.905999,813.91585
378.01,51.038538695999996,363.254683,813.97591
379.01,51.010053264,363.60351,814.03632
380.01,50.981586623999995,363.95228,814.09614
381.01,50.953138775999996,364.301223,814.15484
382.01,50.924709719999996,364.650268,814.21334
383.01,50.896298808,364.999254,814.2723
384.01,50.867906039999994,365.348411,814.32861
385.01,50.839532064,365.697616,814.38527
386.01,50.81117364,366.046761,814.44291
387.01,50.782832064000004,366.396094,814.50086
388.01,50.75450798399999,366.745436,814.55827
389.01,50.726200104,367.094742,814.6152
390.01,50.69790972,367.444227,814.67252
391.01,50.669636184,367.793694,814.72922
392.01,50.641379496,368.143153,814.78652
393.01,50.613137064,368.492753,814.8445
394.01,50.584909536,368.842281,814.9011
395.01,50.556698208,369.19183499999997,814.95763
396.01,50.52850307999999,369.541507,815.01122
397.01,50.500323503999994,369.891085,815.06481
398.01,50.472159479999995,370.240731,815.11929
399.01,50.44401036,370.590467,815.17437
400.01,50.415874848,370.940103,815.23031
401.01,50.387752944,371.28982,815.28595
402.01,50.359645296,371.639567,815.34054
403.01,50.331552552,371.989177,815.3954
404.01,50.303474064,372.338906,815.45023
405.01,50.275409184,372.688633,815.50506
406.01,50.247359208,373.03823,815.55975
407.01,50.219321544,373.38797,815.61297
408.01,50.191295544,373.73766,815.6644
409.01,50.163283152,374.08724,815.71704
410.01,50.135284368,374.43695,815.76961
411.01,50.107297896,374.78659,815.82254
412.01,50.079324383999996,375.13615,815.87563
413.01,50.05136383199999,375.48578,815.92882
414.01,50.023414943999995,375.8353,815.98216
415.01,49.995477072,376.18478,816.0358
416.01,49.967550216,376.53433,816.08874
417.01,49.939635672,376.88372,816.14152
418.01,49.911732144,377.23312,816.19223
419.01,49.883840928,377.58254999999997,816.24127
420.01,49.855960728,377.93182,816.29143
421.01,49.82809219199999,378.28111,816.34243
422.01,49.800232728,378.63038,816.39487
423.01,49.772382984,378.97947,816.44672
424.01,49.744544256,379.32861,816.49792
425.01,49.716715248,379.6777,816.54891
426.01,49.68889660799999,380.02660000000003,816.59983
427.01,49.661088336,380.37558,816.65079
428.01,49.633289784,380.72447,816.70113
429.01,49.605500303999996,381.07321,816.74961
430.01,49.5777186,381.42199,816.79875
431.01,49.549946616,381.77062,816.8487
432.01,49.522183055999996,382.11912,816.89761
433.01,49.494429216,382.46766,816.94748
434.01,49.466684448,382.81603,816.99694
435.01,49.438948104,383.1643,817.04665
436.01,49.411219536,383.51259,817.09695
437.01,49.383497448,383.86069,817.1464
438.01,49.355783783999996,384.20871999999997,817.19341
439.01,49.328077895999996,384.55674,817.2411
440.01,49.300379784,384.90455,817.2893
441.01,49.272689448,385.25232,817.33726
442.01,49.24500688799999,385.60002,817.38566
443.01,49.217331456,385.94749,817.43439
444.01,49.18966056,386.29496,817.48333
445.01,49.161996792,386.64234,817.53138
446.01,49.134340152,386.98947,817.57902
447.01,49.10669064,387.33661,817.62543
448.01,49.07904696,387.68363999999997,817.67209
449.01,49.05140976,388.03044,817.71866
450.01,49.023779039999994,388.37723,817.7658
451.01,48.996152855999995,388.72387000000003,817.81313
452.01,48.968531208,389.07028,817.86079
453.01,48.940915392,389.41669,817.90811
454.01,48.913304759999995,389.76291000000003,817.95489
455.01,48.885700608,390.10893,818.00074
456.01,48.858100992000004,390.45495,818.046
457.01,48.83050656,390.80075999999997,818.09144
458.01,48.802916664,391.14639,818.1371
459.01,48.77532936,391.49199,818.18354
460.01,48.747746592,391.83733,818.22982
461.01,48.720168359999995,392.18251,818.27586
462.01,48.692594015999994,392.52764,818.32194
463.01,48.665024208,392.87251000000003,818.36709
464.01,48.637458288,393.21726,818.41166
465.01,48.609896256,393.56193,818.45577
466.01,48.582336168,393.90633,818.50077
467.01,48.554778672,394.25062,818.54609
