Time,Mass (g),T Back (K),T Top (K)
0.0,21.6,293.0,293.0
1.0,21.59999892,293.0,408.7496
2.0,21.599907336,293.0,533.97987
3.01,21.598655832,293.0,619.32026
4.01,21.591310104,293.000003,684.9558999999999
5.01,21.558761064000002,293.000111,729.07808
6.01,21.46723668,293.001247,748.82065
7.01,21.329395416,293.007288,756.1359199999999
8.01,21.178318536,293.027824,762.8094699999999
9.01,21.026320848,293.079536,771.03031
10.01,20.876176872000002,293.185225,780.36267
11.01,20.727936504000002,293.371209,789.89962
12.01,20.581156944000004,293.664271,799.09391
13.01,20.435678568,294.089057,807.76554
14.01,20.291528376000002,294.66634,815.88394
15.01,20.14877268,295.412196,823.47333
16.01,20.007446472,296.33790799999997,830.57023
17.01,19.867553856,297.450374,837.21047
18.0,19.729777176000002,298.745172,843.41712
19.0,19.593398016000002,300.222527,849.25455
20.0,19.457710488000004,301.882031,854.77512
21.0,19.323371016,303.709198,859.97485
22.0,19.190351088,305.694612,864.87587
23.0,19.058628024,307.828108,869.50165
24.0,18.928183032,310.099082,873.88315
25.0,18.79898652,312.49742200000003,878.04072
26.0,18.671012784000002,315.013261,881.98839
27.0,18.544239360000002,317.63764,885.73314
28.0,18.418655664000003,320.372408,889.29268
29.0,18.294246576000003,323.213201,892.67851
30.0,18.170983368,326.140283,895.89271
31.0,18.048844008,329.15282,898.94165
32.0,17.927816616,332.248022,901.84366
33.0,17.807873760000003,335.420135,904.6044
34.0,17.688981096000003,338.662845,907.22481
35.0,17.571113784,341.969448,909.7178
36.0,17.45425476,345.332682,912.09323
37.0,17.338357152,348.743535,914.35096
38.0,17.223388992,352.195042,916.50065
39.0,17.109333432,355.68931,918.55325
40.0,16.9961382,359.225328,920.50663
41.0,16.883764848000002,362.800643,922.3703
42.0,16.772192424,366.412436,924.15275
43.0,16.661363904,370.057654,925.85248
44.01,16.55069328,373.75173,927.48679
45.01,16.440707376000002,377.47332,929.05198
46.01,16.33189068,381.20064,930.53981
47.01,16.223660424000002,384.94896,931.96942
48.01,16.115982264,388.71503,933.33941
49.01,16.008796152000002,392.49561,934.65392
50.01,15.902079624,396.28722,935.91968
51.01,15.795779760000002,400.0863,937.13479
52.01,15.689850336000001,403.88917000000004,938.30652
53.01,15.584267808000002,407.69151,939.43554
54.01,15.478969320000001,411.48878,940.5233
55.01,15.373928520000002,415.27544,941.57596
56.01,15.269101560000001,419.04409,942.59067
57.01,15.164437248,422.78378,943.57416
58.01,15.059915064000002,426.47168,944.52566
59.01,14.95547604,430.08639,945.4468
60.01,14.851092096000002,433.64331000000004,946.34234
61.01,14.746725216,437.15632,947.20913
62.01,14.642327016,440.63442,948.05331
63.01,14.537878272,444.08463,948.87307
64.01,14.433327792,447.51351999999997,949.67031
65.01,14.328649656000001,450.92656999999997,950.44844
66.01,14.223813408000002,454.32987,951.20404
67.01,14.118776064,457.73062,951.94297
68.01,14.013522936000001,461.14315999999997,952.66308
69.01,13.90800888,464.59618,953.36577
70.01,13.802208624,468.08956,954.05352
71.01,13.696096464,471.61696,954.72396
72.01,13.589629632000001,475.17555,955.38142
73.0,13.483325664,478.7459,956.02065
74.0,13.376606976,482.34499,956.64652
75.0,13.268902464,485.99069,957.26414
76.0,13.160715624000002,489.66485,957.86799
77.0,13.051994616000002,493.36854,958.46146
78.0,12.942707040000002,497.10228,959.04354
79.0,12.83280408,500.86717999999996,959.61473
80.0,12.722233896,504.66541,960.17716
81.0,12.610957392000001,508.49874,960.72906
82.0,12.498911928,512.37003,961.27226
83.0,12.386045448,516.28393,961.80754
84.0,12.272307624000002,520.24614,962.33365
85.0,12.157628687999999,524.26951,962.85264
86.0,12.041950968000002,528.35846,963.3644
87.0,11.925210744,532.49395,963.86852
88.0,11.807329608000002,536.66797,964.3666
89.0,11.688238656000001,540.87631,964.85822
90.0,11.567856888000001,545.11553,965.34343
91.0,11.446092720000001,549.38341,965.82346
92.0,11.322856944,553.6777,966.29816
93.0,11.198051928,557.99594,966.76736
94.0,11.071566648000001,562.3361,967.2322
95.0,10.943289216000002,566.69542,967.69283
96.0,10.813104936,571.06961,968.14883
97.0,10.680882480000001,575.4505300000001,968.60121
98.0,10.54648836,579.84166,969.05013
99.0,10.409783256,584.25464,969.49585
100.0,10.270621584,588.69413,969.93823
101.0,10.128846096,593.16326,970.37789
102.0,9.984295224,597.6647399999999,970.81493
103.0,9.836799408,602.2003,971.2495
104.0,9.686181096,606.7718,971.68184
105.0,9.53225712,611.38059,972.11223
106.0,9.374839344000002,616.0275300000001,972.54055
107.0,9.213740712000002,620.7138199999999,972.96716
108.0,9.048784968,625.4417000000001,973.39231
109.0,8.879817888,630.20351,973.81607
110.0,8.706726504,634.9810600000001,974.23859
111.0,8.529462216,639.7570900000001,974.66028
112.0,8.348078808,644.5102099999999,975.08116
113.0,8.162772192,649.21299,975.50139
114.0,7.973924256,653.8322900000001,975.92119
115.0,7.78214412,658.33056,976.34104
116.0,7.588299672,662.67115,976.76057
117.0,7.393506552000001,666.8265200000001,977.18036
118.0,7.199094240000001,670.79153,977.60012
119.0,7.006505616,674.59923,978.02011
120.0,6.817165848000001,678.30921,978.44037
121.0,6.632343720000001,682.01188,978.86094
122.0,6.453049680000001,685.84402,979.28213
123.0,6.280010568000001,689.9640999999999,979.70448
124.0,6.113729664000001,694.54166,980.12937
125.0,5.95464912,699.76124,980.55878
126.0,5.803398576,705.84703,980.996
127.0,5.6611548,713.11661,981.4455
128.0,5.530189896,722.0765200000001,981.9145
129.0,5.414813280000001,733.6135400000001,982.41319
130.0,5.322840696,749.23182,982.95747
131.0,5.264973,770.38762,983.5729
132.0,5.23927116,793.73185,984.30056
133.0,5.222918664,813.40054,985.19909
134.0,5.205588984,830.15792,986.31245
135.0,5.186613168000001,845.32662,987.62692
136.0,5.166016056,859.41736,989.08739
137.0,5.14388772,872.66925,990.63641
138.0,5.120360568,885.20064,992.22986
139.0,5.095605456,897.1324,993.8367
140.0,5.069826504,908.56419,995.43528
141.0,5.04325548,919.54256,997.01043
142.0,5.0161522320000005,930.03292,998.55151
143.0,4.9888001520000005,939.99567,1000.05047
144.0,4.961495376,949.39019,1001.50013
145.0,4.934535768,958.17778,1002.8936
146.0,4.908206232,966.32519,1004.22407
147.0,4.882767696,973.80768,1005.48502
148.0,4.8584448,980.61146,1006.67043
149.0,4.835417688,986.73498,1007.77518
150.0,4.8138181200000005,992.18924,1008.79528
151.0,4.793727528000001,996.99692,1009.72819
152.0,4.775179824,1001.19082,1010.57293
153.0,4.758167016,1004.81164,1011.33015
154.0,4.742645256,1007.90555,1012.00203
155.0,4.728544128,1010.52178,1012.59212
156.0,4.715773128,1012.7105,1013.10507
157.0,4.704230088,1014.52101,1013.54638
158.0,4.693806144000001,1016.00042,1013.92208
159.0,4.684392000000001,1017.19273,1014.23849
160.01,4.675841208,1018.14223,1014.50308
161.01,4.668097824,1018.87968,1014.72051
162.01,4.661101584000001,1019.43499,1014.89583
163.01,4.654725048,1019.84096,1015.03574
164.01,4.648890024,1020.12241,1015.14523
165.01,4.643526528,1020.30082,1015.22882
166.01,4.638572784,1020.39468,1015.29051
167.01,4.633974144000001,1020.41977,1015.33385
168.01,4.629682872,1020.38949,1015.36193
169.01,4.6256574960000005,1020.31521,1015.37743
170.01,4.621861512,1020.20646,1015.38267
171.01,4.618264032,1020.07125,1015.37961
172.01,4.614837408,1019.91624,1015.36992
173.01,4.61155896,1019.74697,1015.35503
174.01,4.608407952,1019.56799,1015.33612
175.01,4.605367536,1019.38304,1015.31419
176.01,4.602422592000001,1019.19517,1015.29007
177.01,4.5995605920000004,1019.00684,1015.26443
178.01,4.5967703040000005,1018.82002,1015.23785
179.01,4.59404244,1018.63626,1015.21078
180.01,4.591368792,1018.45676,1015.18358
181.01,4.5887424480000005,1018.28246,1015.15657
182.01,4.586157576000001,1018.11403,1015.12996
183.01,4.583608992,1017.95197,1015.10395
184.01,4.58109216,1017.79659,1015.07868
185.01,4.578603408,1017.64809,1015.05424
186.01,4.576139496000001,1017.50656,1015.03071
187.01,4.5736974,1017.37199,1015.00815
188.01,4.57127496,1017.24432,1014.98659
189.01,4.568870232,1017.12343,1014.96603
190.01,4.5664808400000005,1017.00914,1014.94648
191.01,4.56410592,1016.90125,1014.92793
192.01,4.561743744,1016.79956,1014.91036
193.01,4.559393232000001,1016.70382,1014.89376
194.01,4.557053304,1016.61377,1014.87808
195.01,4.554723312,1016.52918,1014.86331
196.01,4.552402392,1016.44977,1014.84939
197.01,4.550089896,1016.37529,1014.83631
198.01,4.5477851760000005,1016.30548,1014.82402
199.01,4.545488016,1016.24011,1014.81249
200.01,4.543197984000001,1016.17891,1014.80167
201.01,4.540914432,1016.12167,1014.79153
202.01,4.538637144000001,1016.06815,1014.78203
203.01,4.536365904,1016.01813,1014.77314
204.01,4.534100496000001,1015.97141,1014.76483
205.01,4.531840704,1015.92778,1014.75706
206.01,4.529586312,1015.88705,1014.74979
207.01,4.52733732,1015.84905,1014.74301
208.01,4.5250932960000005,1015.8136,1014.73667
209.01,4.52285424,1015.78054,1014.73075
210.01,4.520620152,1015.74971,1014.72523
211.01,4.518390816,1015.72098,1014.72008
212.01,4.516166232000001,1015.6942,1014.71528
213.01,4.5139464,1015.66925,1014.7108
214.01,4.511730888000001,1015.646,1014.70663
215.01,4.509520128,1015.62435,1014.70273
216.01,4.507313688,1015.60418,1014.69911
217.01,4.505111568,1015.5854,1014.69573
218.01,4.502913984,1015.56792,1014.69258
219.01,4.50072072,1015.55163,1014.68964
220.01,4.498531776,1015.53648,1014.68691
221.01,4.496347152,1015.52236,1014.68436
222.01,4.494166848,1015.50922,1014.68199
223.01,4.491990648000001,1015.497,1014.67978
224.01,4.489818552,1015.48561,1014.67773
225.01,4.487650776000001,1015.47501,1014.67581
226.01,4.485487104000001,1015.46515,1014.67403
227.01,4.483327752,1015.45596,1014.67236
228.01,4.481172288000001,1015.44741,1014.67081
229.01,4.479021144,1015.43945,1014.66937
230.01,4.476873888,1015.43204,1014.66803
231.01,4.474730952,1015.42514,1014.66677
232.01,4.472591904,1015.41872,1014.6656
233.01,4.47045696,1015.41273,1014.66452
234.01,4.46832612,1015.40716,1014.6635
235.01,4.466199168,1015.40196,1014.66255
236.01,4.46407632,1015.39713,1014.66167
237.01,4.4619575760000005,1015.39262,1014.66085
238.01,4.45984272,1015.38841,1014.66008
239.01,4.457731968,1015.38449,1014.65936
240.01,4.455625104,1015.38084,1014.65869
241.01,4.453522128,1015.37743,1014.65807
242.01,4.451423256,1015.37425,1014.65748
243.01,4.449328488,1015.37128,1014.65694
244.01,4.447237392,1015.36851,1014.65642
245.01,4.4451504,1015.36592,1014.65595
246.01,4.443067296000001,1015.3635,1014.6555
247.01,4.44098808,1015.36124,1014.65508
248.01,4.438912752,1015.35913,1014.65469
249.01,4.436841312,1015.35715,1014.65432
250.01,4.434773760000001,1015.3553,1014.65397
251.01,4.432710096,1015.35356,1014.65365
252.01,4.430650536000001,1015.35194,1014.65334
253.01,4.428594648000001,1015.35041,1014.65306
254.01,4.426542648000001,1015.34898,1014.65279
255.01,4.424494536,1015.34764,1014.65253
256.01,4.4224503120000005,1015.34638,1014.65229
257.01,4.420409760000001,1015.34519,1014.65207
258.01,4.418373096,1015.34407,1014.65185
259.01,4.416340320000001,1015.34302,1014.65165
260.01,4.414311432,1015.34203,1014.65146
261.01,4.412286216,1015.34109,1014.65128
262.01,4.410264888,1015.34021,1014.65111
263.01,4.408247448,1015.33937,1014.65095
264.01,4.40623368,1015.33858,1014.65079
265.01,4.404223584,1015.33783,1014.65064
266.01,4.402217376,1015.33712,1014.6505
267.01,4.400215056,1015.33645,1014.65037
268.01,4.3982161920000005,1015.33581,1014.65024
269.01,4.396221432,1015.3352,1014.65012
270.01,4.394230128,1015.33461,1014.65
271.01,4.392242712000001,1015.33406,1014.64989
272.01,4.390258968,1015.33353,1014.64978
273.01,4.388279112,1015.33302,1014.64968
274.01,4.386302712,1015.33253,1014.64958
275.01,4.3843302,1015.33207,1014.64948
276.01,4.38236136,1015.33162,1014.64939
277.01,4.380396192,1015.33119,1014.6493
278.01,4.378434696,1015.33077,1014.64921
279.01,4.3764768720000005,1015.33037,1014.64913
280.01,4.37452272,1015.32998,1014.64905
281.01,4.372572456,1015.32961,1014.64897
282.01,4.370625648,1015.32925,1014.64889
283.01,4.368682512,1015.3289,1014.64881
284.01,4.366743048,1015.32855,1014.64874
285.01,4.36480704,1015.32822,1014.64867
286.01,4.36287492,1015.3279,1014.6486
287.01,4.360946256,1015.32759,1014.64853
288.01,4.359021264000001,1015.32728,1014.64846
289.01,4.357099944000001,1015.32698,1014.6484
290.01,4.355182296,1015.32669,1014.64833
291.01,4.3532681040000005,1015.3264,1014.64827
292.01,4.3513575840000005,1015.32612,1014.64821
293.01,4.34945052,1015.32584,1014.64815
294.01,4.347547128,1015.32557,1014.64809
295.01,4.3456474080000005,1015.3253,1014.64803
296.01,4.3437511440000005,1015.32504,1014.64797
297.01,4.341858552000001,1015.32478,1014.64791
298.01,4.339969416000001,1015.32453,1014.64785
299.01,4.338083736,1015.32428,1014.64779
300.01,4.336201728,1015.32403,1014.64774
301.01,4.334323176000001,1015.32379,1014.64768
302.01,4.332448080000001,1015.32355,1014.64763
303.01,4.330576656,1015.32331,1014.64757
304.01,4.328708688,1015.32307,1014.64752
305.01,4.326844176000001,1015.32284,1014.64747
306.01,4.324983336000001,1015.32261,1014.64741
307.01,4.323125952,1015.32238,1014.64736
308.01,4.3212718080000005,1015.32215,1014.64731
309.01,4.3194213360000004,1015.32192,1014.64726
310.01,4.31757432,1015.3217,1014.6472
311.01,4.31573076,1015.32148,1014.64715
312.01,4.313890656000001,1015.32126,1014.6471
313.01,4.3120540080000005,1015.32104,1014.64705
314.01,4.310220816,1015.32082,1014.647
315.01,4.30839108,1015.3206,1014.64695
316.01,4.3065648,1015.32039,1014.6469
317.01,4.30474176,1015.32017,1014.64685
318.01,4.302922392,1015.31996,1014.6468
319.01,4.301106264,1015.31975,1014.64675
320.01,4.299293592000001,1015.31953,1014.6467
321.01,4.297484376000001,1015.31932,1014.64665
322.01,4.295678616,1015.31911,1014.6466
323.01,4.293876096,1015.31891,1014.64656
324.01,4.292077032,1015.3187,1014.64651
325.01,4.290281208000001,1015.31849,1014.64646
326.01,4.288489056,1015.31828,1014.64641
327.01,4.286699928,1015.31808,1014.64636
328.01,4.284914256,1015.31787,1014.64631
329.01,4.28313204,1015.31767,1014.64627
330.01,4.28135328,1015.31746,1014.64622
331.01,4.279577544,1015.31726,1014.64617
332.01,4.277805264,1015.31706,1014.64613
333.01,4.27603644,1015.31686,1014.64608
334.01,4.274270856,1015.31666,1014.64603
335.01,4.272508512,1015.31645,1014.64598
336.01,4.2707496240000005,1015.31625,1014.64594
337.01,4.26899376,1015.31605,1014.64589
338.01,4.267241568,1015.31585,1014.64584
339.01,4.2654924,1015.31566,1014.6458
340.01,4.263746472,1015.31546,1014.64575
341.01,4.262004,1015.31526,1014.64571
342.01,4.260264768,1015.31506,1014.64566
343.01,4.258528776,1015.31486,1014.64561
344.01,4.256796024000001,1015.31467,1014.64557
345.01,4.255066512,1015.31447,1014.64552
346.01,4.25334024,1015.31428,1014.64548
347.01,4.251617208,1015.31408,1014.64543
348.01,4.2498974160000005,1015.31388,1014.64539
349.01,4.248180864,1015.31369,1014.64534
350.01,4.246467552,1015.3135,1014.6453
351.01,4.2447574800000005,1015.3133,1014.64525
352.01,4.2430506480000005,1015.31311,1014.64521
353.01,4.24134684,1015.31292,1014.64516
354.01,4.239646272,1015.31272,1014.64512
355.01,4.237948944,1015.31253,1014.64507
356.01,4.236254856,1015.31234,1014.64503
357.01,4.234564008,1015.31215,1014.64498
358.01,4.232876184,1015.31195,1014.64494
359.01,4.2311916,1015.31176,1014.64489
360.01,4.22951004,1015.31157,1014.64485
361.01,4.227831936,1015.31138,1014.6448
362.01,4.22615664,1015.31119,1014.64476
363.01,4.2244848,1015.311,1014.64472
364.01,4.222815768,1015.31081,1014.64467
365.01,4.2211501920000005,1015.31063,1014.64463
366.01,4.2194876400000005,1015.31044,1014.64458
367.01,4.217828112,1015.31025,1014.64454
368.01,4.216171608,1015.31006,1014.6445
369.01,4.214518344,1015.30987,1014.64445
370.01,4.21286832,1015.30969,1014.64441
371.01,4.21122132,1015.3095,1014.64437
372.01,4.209577344,1015.30931,1014.64432
373.01,4.207936392000001,1015.30913,1014.64428
374.01,4.2062984640000005,1015.30894,1014.64424
375.01,4.204663776,1015.30875,1014.64419
376.01,4.203032112,1015.30857,1014.64415
377.01,4.201403688,1015.30838,1014.64411
378.01,4.199778072,1015.3082,1014.64407
379.01,4.1981554800000005,1015.30801,1014.64402
380.01,4.196536128,1015.30783,1014.64398
381.01,4.194919584,1015.30765,1014.64394
382.01,4.19330628,1015.30746,1014.6439
383.01,4.191696,1015.30728,1014.64385
384.01,4.1900887440000005,1015.3071,1014.64381
385.01,4.188484296,1015.30691,1014.64377
386.01,4.186883088,1015.30673,1014.64373
387.01,4.185284688,1015.30655,1014.64368
388.01,4.183689528,1015.30637,1014.64364
389.01,4.182097176,1015.30619,1014.6436
390.01,4.180507848,1015.30601,1014.64356
391.01,4.1789215440000005,1015.30583,1014.64352
392.01,4.177338264,1015.30564,1014.64348
393.01,4.175757792,1015.30546,1014.64343
394.01,4.174180344000001,1015.30529,1014.64339
395.01,4.1726059200000005,1015.30511,1014.64335
396.01,4.171034304,1015.30493,1014.64331
397.01,4.169465928,1015.30475,1014.64327
398.01,4.16790036,1015.30457,1014.64323
399.01,4.1663376,1015.30439,1014.64319
400.01,4.164777864,1015.30421,1014.64315
401.01,4.163220936,1015.30404,1014.6431
402.01,4.1616672480000005,1015.30386,1014.64306
403.01,4.1601161520000005,1015.30368,1014.64302
404.01,4.15856808,1015.3035,1014.64298
405.01,4.157023032000001,1015.30333,1014.64294
406.01,4.1554807920000005,1015.30315,1014.6429
407.01,4.15394136,1015.30298,1014.64286
408.01,4.152404952,1015.3028,1014.64282
409.01,4.150871352,1015.30263,1014.64278
410.01,4.14934056,1015.30245,1014.64274
411.01,4.147812792000001,1015.30228,1014.6427
412.01,4.1462878320000005,1015.3021,1014.64266
413.01,4.144765680000001,1015.30193,1014.64262
414.01,4.143246336000001,1015.30175,1014.64258
415.01,4.141730016,1015.30158,1014.64254
416.01,4.1402165040000005,1015.30141,1014.6425
417.01,4.1387058,1015.30123,1014.64246
418.01,4.137197904,1015.30106,1014.64242
419.01,4.135692816000001,1015.30089,1014.64238
420.01,4.134190536,1015.30072,1014.64234
421.01,4.132691064,1015.30055,1014.6423
422.01,4.131194616,1015.30037,1014.64226
423.01,4.12970076,1015.3002,1014.64222
424.01,4.128209712,1015.30003,1014.64218
425.01,4.126721688000001,1015.29986,1014.64214
426.01,4.125236256000001,1015.29969,1014.64211
427.01,4.123753632000001,1015.29952,1014.64207
428.01,4.122273816000001,1015.29935,1014.64203
429.01,4.120796808000001,1015.29918,1014.64199
430.01,4.119322392,1015.29901,1014.64195
431.01,4.117851000000001,1015.29884,1014.64191
432.01,4.1163822,1015.29868,1014.64187
433.01,4.114916208,1015.29851,1014.64183
434.01,4.113453024,1015.29834,1014.6418
435.01,4.111992432,1015.29817,1014.64176
436.01,4.110534648,1015.298,1014.64172
437.01,4.109079672000001,1015.29784,1014.64168
438.01,4.107627504000001,1015.29767,1014.64164
439.01,4.106177928,1015.2975,1014.6416
440.01,4.104730944000001,1015.29734,1014.64157
441.01,4.103286984,1015.29717,1014.64153
442.01,4.1018454,1015.29701,1014.64149
443.01,4.10040684,1015.29684,1014.64145
444.01,4.098970656,1015.29668,1014.64141
445.01,4.097537496,1015.29651,1014.64138
446.01,4.096106712,1015.29635,1014.64134
447.01,4.094678952,1015.29618,1014.6413
448.01,4.093253568000001,1015.29602,1014.64126
449.01,4.091830992,1015.29585,1014.64123
450.01,4.090411008,1015.29569,1014.64119
451.01,4.088993832,1015.29553,1014.64115
452.01,4.087579248,1015.29537,1014.64112
453.01,4.086167256,1015.2952,1014.64108
454.01,4.0847580720000005,1015.29504,1014.64104
455.01,4.083351264,1015.29488,1014.641
456.01,4.081947264,1015.29472,1014.64097
457.01,4.080546072,1015.29455,1014.64093
458.01,4.079147256000001,1015.29439,1014.64089
459.01,4.077751032,1015.29423,1014.64086
460.01,4.076357616,1015.29407,1014.64082
461.01,4.074966792000001,1015.29391,1014.64078
462.01,4.0735785600000005,1015.29375,1014.64075
463.01,4.072192920000001,1015.29359,1014.64071
464.01,4.070809656000001,1015.29343,1014.64067
465.01,4.0694292,1015.29327,1014.64064
466.01,4.068051336,1015.29311,1014.6406
467.01,4.066676064,1015.29296,1014.64057
468.01,4.065303384000001,1015.2928,1014.64053
469.01,4.063933296,1015.29264,1014.64049
470.01,4.062565584000001,1015.29248,1014.64046
471.01,4.061200680000001,1015.29232,1014.64042
