Time,Mass (g),T Back (K),T Top (K)
0.0,64.8,293.0,293.0
1.0,64.799998704,293.0,408.7496
2.0,64.799907336,293.0,533.97987
3.01,64.7986554,293.0,619.32026
4.01,64.79131032,293.0,684.9558999999999
5.01,64.75876128,293.0,729.07808
6.01,64.667236464,293.0,748.82065
7.01,64.5293952,293.0,756.13597
8.01,64.37831918399999,293.0,762.8076599999999
9.01,64.226324304,293.0,771.02685
10.01,64.076186592,293.0,780.3537
11.01,63.927949463999994,293.0,789.88707
12.01,63.78116904,293.0,799.07897
13.01,63.63568591199999,293.0,807.74754
14.01,63.491527944,293.0,815.86195
15.01,63.34876188,293.0,823.44965
16.01,63.207420119999995,293.0,830.54136
17.01,63.067509791999996,293.0,837.17873
18.0,62.929717776,293.0,843.38677
19.0,62.793319608,293.0,849.22195
20.0,62.657608319999994,293.0,854.73962
21.0,62.523244224,293.0,859.93672
22.0,62.390200752,293.0,864.83344
23.0,62.258460408,293.0,869.45983
24.0,62.12799792,293.0,873.84202
25.0,61.998784128,293.0,877.99628
26.0,61.870802831999995,293.0,881.93748
27.0,61.744042368,293.0,885.67739
28.0,61.618502088,293.0,889.23901
29.0,61.494156072,293.000001,892.61956
30.0,61.37098812,293.000001,895.82314
31.0,61.248996936,293.000002,898.86773
32.0,61.12817928,293.000003,901.76489
33.0,61.00850988,293.000004,904.51292
34.0,60.889979663999995,293.000007,907.12099
35.0,60.772593168,293.000012,909.60593
36.0,60.656321231999996,293.000018,911.96421
37.0,60.541148304,293.000029,914.20367
38.0,60.427083456,293.000043,916.3399
39.0,60.31409169599999,293.000065,918.36706
40.0,60.20216265599999,293.000095,920.29727
41.0,60.091300872,293.000136,922.13912
42.0,59.981464872,293.00019199999997,923.88788
43.0,59.872658544,293.000267,925.55979
44.01,59.764329143999994,293.000366,927.16025
45.01,59.656987296,293.000496,928.68527
46.01,59.55117408,293.000661,930.13863
47.01,59.44630823999999,293.000872,931.52176
48.01,59.342390424,293.00113699999997,932.84916
49.01,59.23940054399999,293.001466,934.11589
50.01,59.137310735999996,293.001872,935.32962
51.01,59.03612748,293.002369,936.49378
52.01,58.935804768,293.002971,937.60716
53.01,58.83635556,293.003694,938.67928
54.01,58.737735792,293.004558,939.70456
55.01,58.639952592,293.005583,940.69417
56.01,58.542972911999996,293.00679,941.64157
57.01,58.44678768,293.008203,942.55746
58.01,58.351383287999994,293.009847,943.43572
59.01,58.256733816,293.011751,944.28546
60.01,58.16283926399999,293.013942,945.10232
61.01,58.069665287999996,293.016453,945.89324
62.01,57.977218368,293.019316,946.65498
63.01,57.885460271999996,293.022566,947.39329
64.01,57.79440072,293.026239,948.10549
65.01,57.704000832,293.030374,948.79665
66.01,57.614271624,293.035011,949.4642
67.01,57.525174215999996,293.040192,950.11319
68.01,57.43672092,293.045959,950.74048
69.01,57.3488748,293.052359,951.35156
70.01,57.26164427999999,293.059436,951.94244
71.01,57.174998904,293.06724,952.51921
72.01,57.088940616,293.07582,953.07711
73.0,57.003874416,293.085176,953.62005
74.0,56.91936096,293.095401,954.14553
75.0,56.834972568,293.106606,954.66258
76.0,56.751112944,293.118795,955.16392
77.0,56.667789864,293.132022,955.65448
78.0,56.58496898399999,293.146345,956.13171
79.0,56.502669096,293.161819,956.59771
80.0,56.42084808,293.178502,957.05303
81.0,56.339529264,293.196452,957.4967
82.0,56.258674416,293.215727,957.93193
83.0,56.178296495999994,293.236387,958.35495
84.0,56.098375416,293.258491,958.77073
85.0,56.018900808,293.282098,959.17569
86.0,55.939879151999996,293.307268,959.5733
87.0,55.861278696,293.334062,959.96192
88.0,55.783120176,293.362539,960.34206
89.0,55.705367304,293.39276,960.71578
90.0,55.62803563199999,293.424784,961.08005
91.0,55.551105719999995,293.458673,961.43911
92.0,55.474569792,293.494484,961.78951
93.0,55.398434976,293.532277,962.13399
94.0,55.322670167999995,293.572112,962.4721
95.0,55.2472974,293.614047,962.80291
96.0,55.17228686399999,293.65814,963.12928
97.0,55.097644392,293.704448,963.44798
98.0,55.023367392,293.753029,963.76217
99.0,54.949432535999996,293.803938,964.07054
100.0,54.875858615999995,293.857231,964.3728
101.0,54.80261712,293.912964,964.67145
102.0,54.72971712,293.971189,964.96325
103.0,54.65715408,294.03196,965.25119
104.0,54.584906616,294.09533,965.53434
105.0,54.512993519999995,294.16134999999997,965.81192
106.0,54.441388872,294.230071,966.08656
107.0,54.370097855999994,294.30154,966.35542
108.0,54.299123712000004,294.375809,966.62049
109.0,54.228439224,294.452923,966.88205
110.0,54.158065128,294.532929,967.13826
111.0,54.087981336,294.615873,967.3919
112.0,54.01818396,294.701798,967.64093
113.0,53.948684664,294.790748,967.88593
114.0,53.879456232,294.882765,968.12856
115.0,53.810511624,294.977889,968.36625
116.0,53.741846951999996,295.07616,968.60116
117.0,53.673442128,295.177618,968.83306
118.0,53.60531529599999,295.28229699999997,969.06054
119.0,53.537449607999996,295.390236,969.28601
120.0,53.46983988,295.501469,969.5078
121.0,53.402497128,295.616029,969.72604
122.0,53.33539932,295.73395,969.94243
123.0,53.268553584,295.855262,970.15492
124.0,53.20196316,295.979995,970.36466
125.0,53.135606016,296.10818,970.57238
126.0,53.06949640799999,296.239842,970.77635
127.0,53.003629152,296.37501,970.97813
128.0,52.93798675199999,296.513708,971.17763
129.0,52.872586056,296.655959,971.37373
130.0,52.807414103999996,296.80179,971.56806
131.0,52.74246247199999,296.951219,971.75985
132.0,52.677744768,297.104268,971.94856
133.0,52.613244791999996,297.260958,972.13596
134.0,52.548959952000004,297.421306,972.32043
135.0,52.484901264,297.585329,972.5023
136.0,52.421049935999996,297.753046,972.683
137.0,52.357409856,297.92447,972.8607
138.0,52.293987504,298.099615,973.03616
139.0,52.23076344,298.278497,973.2105
140.0,52.16774544,298.461125,973.38186
141.0,52.10493804,298.647513,973.55127
142.0,52.0423218,298.837608,973.71959
143.0,51.979905792000004,299.030948,973.885
144.0,51.91769325599999,299.227946,974.0487
145.0,51.8556654,299.428728,974.21133
146.0,51.793831944,299.633302,974.37116
147.0,51.73219548,299.841592,974.52942
148.0,51.670738512,300.052974,974.68667
149.0,51.609468815999996,300.267969,974.84127
150.0,51.548390927999996,300.48674,974.99434
151.0,51.487486704,300.709301,975.14648
152.0,51.426764567999996,300.93528200000003,975.29617
153.0,51.36622776,301.164388,975.44428
154.0,51.305860079999995,301.397231,975.59156
155.0,51.24566736,301.633817,975.73666
156.0,51.18565608,301.873961,975.88002
157.0,51.125809392,302.117092,976.02264
158.0,51.066131184,302.363884,976.16346
159.0,51.006629231999995,302.61442,976.30234
160.01,50.946993144000004,302.869818,976.44137
161.01,50.88751970399999,303.128114,976.57872
162.01,50.828514119999994,303.388707,976.7134
163.01,50.769668591999995,303.652995,976.84744
164.01,50.710977287999995,303.920653,976.98014
165.01,50.65245187199999,304.191146,977.11093
166.01,50.594085864,304.465234,977.24076
167.01,50.535866952,304.742963,977.36962
168.01,50.477808743999994,305.02362,977.49683
169.01,50.419907351999996,305.307347,977.62278
170.01,50.362149167999995,305.594629,977.74821
171.01,50.30454456,305.88522,977.87179
172.01,50.247094824,306.178458,977.99408
173.01,50.189785056,306.475158,978.1159
174.01,50.132622384,306.77536299999997,978.23612
175.01,50.075611344,307.078195,978.355
176.01,50.018740271999995,307.384107,978.47343
177.01,49.962007871999994,307.693481,978.59061
178.01,49.905422568,308.00566200000003,978.70625
179.01,49.848979176,308.320539,978.82114
180.01,49.792666032,308.63879099999997,978.93525
181.01,49.73649544799999,308.95993599999997,979.04793
182.01,49.680466128,309.283607,979.15958
183.01,49.624564464,309.610632,979.2709
184.01,49.568798232,309.94061,979.38071
185.01,49.513170672,310.272919,979.4893
186.01,49.457671416,310.608466,979.5976
187.01,49.402299168,310.946867,979.70478
188.01,49.347061704,311.287508,979.81065
189.01,49.291955136,311.631306,979.91587
190.01,49.236967152,311.977782,980.02046
191.01,49.182110064,312.326578,980.12379
192.01,49.127383224,312.67854,980.22613
193.01,49.07277432,313.032929,980.32831
194.01,49.018287887999996,313.389669,980.42919
195.01,48.96392975999999,313.749478,980.52899
196.01,48.909691512,314.111375,980.62836
197.01,48.85556796,314.475822,980.72709
198.01,48.801567528,314.843147,980.82453
199.01,48.74768956799999,315.212327,980.92116
200.01,48.693922416,315.584253,981.01768
201.01,48.640271256,315.95867,981.11297
202.01,48.586741272,316.335068,981.20724
203.01,48.53332404,316.714429,981.30117
204.01,48.480014376,317.095819,981.39449
205.01,48.426821352,317.479556,981.48667
206.01,48.37374431999999,317.866068,981.57807
207.01,48.320770968,318.254392,981.66937
208.01,48.267907776,318.645625,981.7596
209.01,48.215157984,319.039886,981.84889
210.01,48.162516408,319.436429,981.9378
211.01,48.109975272,319.836008,982.02627
212.01,48.057543648,320.237974,982.11367
213.01,48.005222184,320.642262,982.20026
214.01,47.953000511999996,321.049303,982.28684
215.01,47.900879927999995,321.458129,982.37249
216.01,47.848866912,321.869517,982.45723
217.01,47.796958224,322.282851,982.5415
218.01,47.745143496,322.698296,982.62554
219.01,47.693431151999995,323.115927,982.7086
220.01,47.641822487999995,323.534924,982.79086
221.01,47.590310376,323.955867,982.87297
222.01,47.538891576,324.378604,982.95448
223.01,47.487573864,324.803304,983.0351
224.01,47.436355944,325.22994,983.11507
225.01,47.385227448,325.658595,983.19507
226.01,47.334192912,326.08924,983.27415
227.01,47.28325622399999,326.521835,983.35247
228.01,47.23241479199999,326.956451,983.43039
229.01,47.181658248,327.392974,983.50813
230.01,47.130995664000004,327.831487,983.58497
231.01,47.08042768799999,328.271877,983.66113
232.01,47.029948487999995,328.714209,983.73712
233.01,46.979553528,329.158416,983.81268
234.01,46.929249936,329.60450000000003,983.88744
235.01,46.879038359999996,330.052465,983.96152
236.01,46.828909728,330.502235,984.03572
237.01,46.77886468799999,330.953864,984.10914
238.01,46.728908424,331.40723,984.1819
239.01,46.679040287999996,331.862415,984.25411
240.01,46.629249912,332.319318,984.3264
241.01,46.57954247999999,332.777998,984.39783
242.01,46.529921232,333.238357,984.46869
243.01,46.480383576,333.700429,984.53915
244.01,46.430921088,334.164166,984.60955
245.01,46.381539599999996,334.629534,984.67918
246.01,46.332241704,335.096534,984.74823
247.01,46.28302351199999,335.56512299999997,984.817
248.01,46.2338766,336.035333,984.88559
249.01,46.184809392,336.507053,984.95345
250.01,46.135823183999996,336.98035,985.02078
251.01,46.08691279199999,337.455112,985.08795
252.01,46.038072384,337.93141,985.15485
253.01,45.989308439999995,338.409111,985.22103
254.01,45.940622256,338.888293,985.28671
255.01,45.89200735199999,339.368855,985.35234
256.01,45.843461135999995,339.850862,985.41753
257.01,45.79498944,340.33419000000004,985.48212
258.01,45.74659226399999,340.818902,985.54623
259.01,45.698263127999994,341.3049,985.61037
260.01,45.650000088,341.792219,985.67401
261.01,45.601808976,342.280773,985.73708
262.01,45.55368979199999,342.77061000000003,985.79967
263.01,45.505635408,343.261643,985.86238
264.01,45.457645176,343.753888,985.92449
265.01,45.409723631999995,344.247263,985.98612
266.01,45.361872072,344.741785,986.04729
267.01,45.314081424,345.237396,986.1086
268.01,45.266352983999994,345.734104,986.16932
269.01,45.21869064,346.231829,986.22954
270.01,45.17109504,346.73057,986.28932
271.01,45.12355776,347.230257,986.34925
272.01,45.076080096,347.730859,986.4086
273.01,45.02866658399999,348.23228,986.46749
274.01,44.981316576,348.73443399999996,986.52595
275.01,44.934022296,349.237373,986.58458
276.01,44.88678503999999,349.741225,986.64264
277.01,44.839609343999996,350.245909,986.70025
278.01,44.79249456,350.751593,986.75746
279.01,44.745433559999995,351.25816399999997,986.81482
280.01,44.698426344,351.76574700000003,986.87167
281.01,44.65147809599999,352.274208,986.92805
282.01,44.60458752,352.783631,986.98406
283.01,44.557749431999994,353.293947,987.04017
284.01,44.510962535999994,353.805221,987.09586
285.01,44.464230719999996,354.31739,987.15106
286.01,44.417554632,354.830503,987.20593
287.01,44.370929736,355.344511,987.26082
288.01,44.324351496,355.859392,987.31541
289.01,44.27782704,356.37516800000003,987.36949
290.01,44.231355719999996,356.891794,987.42324
291.01,44.184933,357.409336,987.47696
292.01,44.138554991999996,357.927706,987.53051
293.01,44.092227527999995,358.446961,987.58351
294.01,44.045949959999994,358.966963,987.63619
295.01,43.999720992,359.48788,987.68877
296.01,43.9535322,360.00952,987.74131
297.01,43.90739136,360.53207299999997,987.79327
298.01,43.861298472,361.05531,987.84492
299.01,43.81525223999999,361.579473,987.89641
300.01,43.769243592,362.104305,987.94797
301.01,43.723279656,362.63,987.99894
302.01,43.677361728,363.156318,988.04961
303.01,43.631487864,363.6835,988.10006
304.01,43.585650288,364.211329,988.15071
305.01,43.539854184,364.739979,988.20074
306.01,43.494100848,365.269269,988.25047
307.01,43.448389631999994,365.799287,988.29991
308.01,43.402714056,366.329972,988.3496
309.01,43.357075416,366.861341,988.39874
310.01,43.311476952,367.393399,988.44756
311.01,43.265918664,367.926097,988.49611
312.01,43.220396016,368.459492,988.54477
313.01,43.17490512,368.993429,988.59313
314.01,43.129453104,369.52808400000004,988.64106
315.01,43.084038024,370.063244,988.68874
316.01,43.038657936,370.599149,988.73641
317.01,42.99330636,371.135542,988.78401
318.01,42.947990424,371.672605,988.83111
319.01,42.90270948,372.210125,988.87796
320.01,42.857462232,372.748294,988.92467
321.01,42.812241552,373.28696,988.97152
322.01,42.767052623999994,373.8262,989.01781
323.01,42.721896744,374.36598,989.06385
324.01,42.676772616,374.90627,989.10967
325.01,42.631674407999995,375.44711,989.15576
326.01,42.586603416,375.98837000000003,989.2013
327.01,42.54156288,376.5302,989.24657
328.01,42.4965528,377.0724,989.29162
329.01,42.451567992,377.61521,989.33679
330.01,42.40660586399999,378.15837,989.38169
331.01,42.361672248,378.70205,989.4262
332.01,42.316765847999996,379.24608,989.47051
333.01,42.271885368,379.7906,989.5148
334.01,42.227024328,380.33551,989.55909
335.01,42.182187911999996,380.88084000000003,989.6029
336.01,42.137377416,381.42658,989.64649
337.01,42.092591544,381.97262,989.68993
338.01,42.047822520000004,382.51913,989.73359
339.01,42.003075528000004,383.06588999999997,989.77672
340.01,41.958351216,383.61312,989.81963
341.01,41.913650231999995,384.16058,989.86231
342.01,41.868966095999994,384.7085,989.90524
343.01,41.824298808,385.25667,989.94778
344.01,41.779652256,385.80517,989.99002
345.01,41.735027088,386.35395,990.03207
346.01,41.690418767999994,386.90301,990.07414
347.01,41.645824055999995,387.45241,990.11618
348.01,41.60124684,388.00202,990.15778
349.01,41.556688416,388.55196,990.19919
350.01,41.51214684,389.10202,990.24048
351.01,41.46761628,389.65244,990.28199
352.01,41.423099976,390.20299,990.32299
353.01,41.378599871999995,390.75383999999997,990.36378
354.01,41.334115968,391.30485,990.40439
355.01,41.289642432,391.85605,990.44523
356.01,41.245178616,392.40745,990.48573
357.01,41.200728407999996,392.95897,990.52594
358.01,41.156292455999996,393.51074,990.56597
359.01,41.11186752,394.06258,990.60601
360.01,41.067448416,394.61465,990.64608
361.01,41.023040976,395.16670999999997,990.68572
362.01,40.978644552,395.71899,990.72518
363.01,40.934258496,396.2713,990.7645
364.01,40.88987762399999,396.82376999999997,990.80409
365.01,40.845503232,397.37632,990.84321
366.01,40.80113856,397.92892,990.88212
367.01,40.756782959999995,398.48163999999997,990.92087
368.01,40.712431896,399.03430000000003,990.95977
369.01,40.668083424,399.58711,990.99848
370.01,40.62374207999999,400.13983,991.03687
371.01,40.579407864,400.69268999999997,991.07509
372.01,40.535078831999996,401.24547,991.11327
373.01,40.490748504,401.79829,991.1516
374.01,40.446422064,402.35104,991.18948
375.01,40.402100808,402.90373999999997,991.2272
376.01,40.35778344,403.45645,991.26474
377.01,40.313464776,404.00905,991.30259
378.01,40.269146112,404.56165,991.34003
379.01,40.224829392000004,405.11403,991.37726
380.01,40.180515912,405.66642,991.41433
381.01,40.136201136,406.21860000000004,991.45145
382.01,40.091881824,406.77074,991.48858
383.01,40.04756316,407.32268999999997,991.52534
384.01,40.003244496,407.87451999999996,991.56194
385.01,39.958925183999995,408.42619,991.59842
386.01,39.914599392,408.97761,991.63518
387.01,39.870269712,409.5289,991.6715
388.01,39.825938736,410.07986,991.70764
389.01,39.781605815999995,410.63072999999997,991.74363
390.01,39.737266416,411.18124,991.77978
391.01,39.692918592,411.73154999999997,991.81579
392.01,39.648567528,412.28148999999996,991.85149
393.01,39.604211928,412.83117,991.88704
394.01,39.559850495999996,413.38052,991.92256
395.01,39.515477399999995,413.92953,991.95826
396.01,39.471097824,414.47821,991.99355
397.01,39.426711768,415.02639,992.02868
398.01,39.382319232,415.57426,992.06364
399.01,39.337914384,416.12158999999997,992.09893
400.01,39.293499168,416.66859,992.13386
401.01,39.249074879999995,417.21499,992.16859
402.01,39.204642815999996,417.76093000000003,992.20315
403.01,39.160199735999996,418.30626,992.23778
404.01,39.115741104,418.85103000000004,992.27248
405.01,39.071272104,419.39519,992.30681
406.01,39.026792736,419.93865,992.34098
407.01,38.982301703999994,420.48148000000003,992.37504
408.01,38.937794472,421.0235,992.40942
409.01,38.893272984,421.56479,992.44341
410.01,38.848739183999996,422.10506,992.4772
411.01,38.80419242399999,422.64449,992.51085
412.01,38.759628815999996,423.18273,992.54465
413.01,38.715047064,423.71979,992.57841
414.01,38.670451056,424.2555,992.61184
415.01,38.625839496,424.79005,992.64512
416.01,38.581212384,425.32329,992.67835
417.01,38.536563887999996,425.85469,992.71186
418.01,38.491897896,426.38392999999996,992.74495
419.01,38.447215056,426.91148,992.77786
420.01,38.402515367999996,427.43723,992.81065
421.01,38.357794295999994,427.96128,992.84372
422.01,38.31305183999999,428.48402999999996,992.87657
423.01,38.26829059199999,429.00507,992.90914
424.01,38.223510552,429.52520000000004,992.94158
425.01,38.178709776,430.04364,992.97408
426.01,38.133883728,430.56147999999996,993.00673
427.01,38.089036944,431.07755,993.03897
428.01,38.044169423999996,431.5931,993.07107
429.01,37.99928052,432.1068,993.10309
430.01,37.954365696,432.62023999999997,993.13545
431.01,37.9094256,433.13189,993.16742
432.01,37.864463472,433.64341,993.19918
433.01,37.819478016,434.15321,993.23085
434.01,37.774467288,434.66283999999996,993.26269
435.01,37.729428047999995,435.17078000000004,993.29451
436.01,37.684364183999996,435.67866000000004,993.32594
437.01,37.639275696,436.18494999999996,993.35729
438.01,37.594161936,436.69128,993.38863
439.01,37.549017719999995,437.19615,993.42025
440.01,37.503845639999994,437.70094,993.4514
441.01,37.45864764,438.20421,993.48241
442.01,37.41342307199999,438.70753,993.51339
443.01,37.368168047999994,439.20944,993.5446
444.01,37.322881272000004,439.71146999999996,993.57557
445.01,37.277566631999996,440.21213,993.60627
446.01,37.23222348,440.71284,993.63694
447.01,37.186851168000004,441.21218999999996,993.66767
448.01,37.141443216,441.71171000000004,993.69846
449.01,37.096005456,442.20993,993.72888
450.01,37.050537887999994,442.70837,993.75925
451.01,37.005039864,443.20556999999997,993.78956
452.01,36.959506848,443.70308,993.82008
453.01,36.913940784000005,444.19938,993.85026
454.01,36.868342968,444.69591,993.88036
455.01,36.822712752,445.19126,993.91038
456.01,36.77704884,445.68697,993.94041
457.01,36.731346696,446.1815,993.97043
458.01,36.685612152,446.67645,994.00027
459.01,36.639843911999996,447.17026,994.03001
460.01,36.594041328,447.66444,994.05959
461.01,36.548199864,448.15747,994.08943
462.01,36.502322111999995,448.65099,994.11902
463.01,36.456409367999996,449.14340000000004,994.14846
464.01,36.41046228,449.63639,994.17768
465.01,36.364475664,450.12835,994.20723
466.01,36.318450168,450.62079,994.23663
467.01,36.272388383999996,451.11217999999997,994.26577
468.01,36.226289664,451.60417,994.29474
469.01,36.180152064,452.09524,994.32387
