Time,Mass (g),T Back (K),T Top (K)
0.0,64.8,293.0,293.0
1.0,64.8,293.0,315.240089
2.0,64.8,293.0,337.958306
3.01,64.8,293.0,352.611488
4.01,64.8,293.0,364.269406
5.01,64.799999352,293.0,374.13402
6.01,64.799998704,293.0,382.80752
7.01,64.79999805599999,293.0,390.59104
8.01,64.79999676,293.0,397.67431999999997
9.01,64.799994816,293.0,404.18663000000004
10.01,64.799991576,293.0,410.22102
11.01,64.799987688,293.0,415.84695
12.01,64.799982504,293.0,421.11824
13.01,64.799974728,293.0,426.08346
14.01,64.799965656,293.0,430.78711
15.01,64.799953344,293.0,435.25061
16.01,64.79993843999999,293.0,439.49544000000003
17.01,64.799920296,293.0,443.54083
18.0,64.79989826399999,293.0,447.38464
19.0,64.799871048,293.0,451.06135
20.0,64.799839296,293.0,454.60114
21.0,64.79980171199999,293.0,457.99652000000003
22.0,64.799757648,293.0,461.25789
23.0,64.799707104,293.0,464.39939000000004
24.0,64.799648136,293.0,467.43122
25.0,64.799581392,293.0,470.35981000000004
26.0,64.799505576,293.0,473.19088999999997
27.0,64.799419392,293.0,475.92967999999996
28.0,64.79932284,293.0,478.58152
29.0,64.799215272,293.0,481.14974
30.0,64.799095392,293.0,483.63946999999996
31.0,64.798961904,293.000001,486.05345
32.0,64.798814808,293.000001,488.39623
33.0,64.798652808,293.000001,490.67064
34.0,64.798475904,293.000002,492.87932
35.0,64.798282152,293.000003,495.02542
36.0,64.798070904,293.000004,497.11163999999997
37.0,64.79784216,293.000007,499.14053
38.0,64.79759397599999,293.00001,501.11422
39.0,64.797326352,293.000015,503.03526999999997
40.0,64.797037992,293.000022,504.90504
41.0,64.796728248,293.000031,506.72586
42.0,64.796396472,293.000044,508.49984
43.0,64.796041368,293.000062,510.22877
44.01,64.795660992,293.000086,511.92233
45.01,64.795255344,293.000117,513.57305
46.01,64.79482636799999,293.000158,515.1759099999999
47.01,64.794371472,293.00021,516.73884
48.01,64.79388936,293.000276,518.26463
49.01,64.793380032,293.000359,519.75365
50.01,64.792842192,293.00046199999997,521.20795
51.01,64.79227584,293.000589,522.62763
52.01,64.79167968,293.000744,524.01509
53.01,64.791053712,293.000933,525.36569
54.01,64.79039664,293.00116,526.68193
55.01,64.789708464,293.001431,527.96466
56.01,64.788987888,293.001753,529.2149099999999
57.01,64.78823556,293.002133,530.43415
58.01,64.787450184,293.00257799999997,531.6240399999999
59.01,64.786631112,293.003097,532.7853299999999
60.01,64.785778992,293.0037,533.9191000000001
61.01,64.78489187999999,293.004394,535.0265099999999
62.01,64.783970424,293.005192,536.1085
63.01,64.78301397599999,293.006103,537.1659500000001
64.01,64.782021888,293.00714,538.19973
65.01,64.78099415999999,293.008314,539.21066
66.01,64.779930792,293.009639,540.19952
67.01,64.778830488,293.011129,541.1670799999999
68.01,64.777693896,293.012796,542.11403
69.01,64.77652036799999,293.014657,543.04103
70.01,64.775309904,293.016727,543.94866
71.01,64.77406185599999,293.019021,544.83762
72.01,64.772776224,293.021556,545.70852
73.0,64.77146013599999,293.024334,546.5576599999999
74.0,64.770106464,293.027386,547.38987
75.0,64.76870808,293.030746,548.21007
76.0,64.767271464,293.034418,549.0139300000001
77.0,64.765796616,293.038422,549.80201
78.0,64.76428418399999,293.042776,550.57511
79.0,64.762732872,293.0475,551.33375
80.0,64.761143328,293.052614,552.07819
81.0,64.759515552,293.05814,552.80827
82.0,64.757849544,293.064097,553.5247899999999
83.0,64.75614465599999,293.070507,554.22855
84.0,64.754401536,293.07739,554.9196400000001
85.0,64.752620184,293.084768,555.59734
86.0,64.750799952,293.092663,556.2634800000001
87.0,64.748942136,293.101096,556.91824
88.0,64.74704608799999,293.110089,557.56032
89.0,64.74511116,293.119664,558.19177
90.0,64.743138648,293.129843,558.8126
91.0,64.74112855199999,293.140648,559.42158
92.0,64.739079576,293.1521,560.0211300000001
93.0,64.736993664,293.164222,560.60979
94.0,64.73486952,293.177035,561.1882800000001
95.0,64.73270844,293.190562,561.75801
96.0,64.730509776,293.204823,562.3167100000001
97.0,64.728273528,293.219841,562.8674
98.0,64.726000344,293.235636,563.4077
99.0,64.723690224,293.25223,563.9399900000001
100.0,64.721343816,293.26964399999997,564.4630199999999
101.0,64.71896047199999,293.287899,564.97747
102.0,64.716540192,293.307014,565.4838500000001
103.0,64.714084272,293.327012,565.98129
104.0,64.711592064,293.34791,566.47165
105.0,64.709064216,293.36973,566.95291
106.0,64.70650008,293.39249,567.42769
107.0,64.703900952,293.41621,567.89368
108.0,64.701266832,293.440908,568.35315
109.0,64.698597072,293.466604,568.80472
110.0,64.695892968,293.493314,569.2492500000001
111.0,64.69315452,293.521057,569.6869899999999
112.0,64.69038108,293.54985,570.11698
113.0,64.687573296,293.579711,570.54175
114.0,64.684732464,293.610655,570.95762
115.0,64.681857288,293.642699,571.3695299999999
116.0,64.678949064,293.675859,571.77256
117.0,64.676007144,293.71015,572.17115
118.0,64.673032176,293.745588,572.56285
119.0,64.670024808,293.782186,572.94741
120.0,64.66698504,293.819959,573.3283
121.0,64.663912872,293.858921,573.70063
122.0,64.660808952,293.899084,574.0698199999999
123.0,64.657672632,293.940463,574.4326699999999
124.0,64.654505208,293.983069,574.7884
125.0,64.65130668,294.026914,575.14198
126.0,64.64807704799999,294.07201,575.4880499999999
127.0,64.64481696,294.11836900000003,575.8284
128.0,64.641525768,294.166,576.1664499999999
129.0,64.638204768,294.214915,576.49683
130.0,64.63485396,294.265122,576.8226500000001
131.0,64.631473344,294.316633,577.1458
132.0,64.62806291999999,294.369455,577.4613400000001
133.0,64.624623984,294.423597,577.77275
134.0,64.62115588799999,294.479067,578.0820699999999
135.0,64.617658632,294.535875,578.3831299999999
136.0,64.61413415999999,294.594025,578.68075
137.0,64.610580528,294.653527,578.97662
138.0,64.60699967999999,294.714386,579.26459
139.0,64.603390968,294.776608,579.5486000000001
140.0,64.599755688,294.840199,579.83148
141.0,64.596092544,294.905166,580.1078299999999
142.0,64.59240348,294.971512,580.37768
143.0,64.5886872,295.039242,580.64863
144.0,64.58494499999999,295.108362,580.91362
145.0,64.581177528,295.178874,581.17193
146.0,64.577383488,295.250782,581.4286500000001
147.0,64.573564824,295.324089,581.68346
148.0,64.56972088799999,295.398799,581.93219
149.0,64.56585232799999,295.474913,582.17419
150.0,64.561959144,295.552435,582.41908
151.0,64.558041336,295.631365,582.65776
152.0,64.5541002,295.711706,582.89072
153.0,64.55013508799999,295.793458,583.11977
154.0,64.546146648,295.876622,583.3507500000001
155.0,64.54213488,295.961199,583.57552
156.0,64.53810043200001,296.04719,583.7951
157.0,64.534043304,296.134594,584.0100199999999
158.0,64.52996414399999,296.22341,584.22752
159.0,64.525862952,296.313639,584.44201
160.01,64.521718992,296.40574300000003,584.64815
161.01,64.51755364799999,296.49926800000003,584.85059
162.01,64.51338765599999,296.593742,585.0577499999999
163.01,64.509200928,296.689622,585.25895
164.01,64.504993464,296.786909,585.45337
165.01,64.500765264,296.885598,585.64219
166.01,64.496517624,296.985688,585.83649
167.01,64.49224989599999,297.087176,586.02781
168.01,64.48796208,297.19006,586.2109
169.01,64.483655472,297.294335,586.3915999999999
170.01,64.479330072,297.4,586.57091
171.01,64.474985232,297.50705,586.75164
172.01,64.470622248,297.615481,586.92695
173.01,64.46624111999999,297.72529099999997,587.0975599999999
174.01,64.461841848,297.836474,587.26659
175.01,64.45742508000001,297.949027,587.4353100000001
176.01,64.452990816,298.062945,587.6014
177.01,64.448539056,298.178223,587.76463
178.01,64.44407044799999,298.294857,587.92487
179.01,64.439584992,298.412842,588.082
180.01,64.43508333599999,298.532173,588.23875
181.01,64.43056548,298.652844,588.3942400000001
182.01,64.426031424,298.774851,588.5460800000001
183.01,64.421481816,298.898012,588.6954000000001
184.01,64.416916656,299.022218,588.84293
185.01,64.412335944,299.147734,588.9887200000001
186.01,64.407740976,299.274558,589.13264
187.01,64.403130456,299.402684,589.27655
188.01,64.39850568,299.532108,589.4158199999999
189.01,64.393866648,299.662824,589.55344
190.01,64.389214008,299.794829,589.68943
191.01,64.384547112,299.927784,589.82497
192.01,64.379866608,300.061732,589.9581499999999
193.01,64.37517249599999,300.196928,590.08878
194.01,64.370465424,300.333368,590.2193199999999
195.01,64.36574603999999,300.471049,590.34645
196.01,64.361013048,300.609964,590.47275
197.01,64.356267744,300.750111,590.5968399999999
198.01,64.351510128,300.891299,590.72095
199.01,64.346740848,301.033262,590.8426
200.01,64.341959256,301.176395,590.9618
201.01,64.337166,301.320711,591.08034
202.01,64.332361728,301.466205,591.19826
203.01,64.327545792,301.61287,591.31405
204.01,64.32271884,301.760698,591.42858
205.01,64.317880872,301.909421,591.54058
206.01,64.313032536,302.058921,591.65251
207.01,64.308173184,302.209563,591.76352
208.01,64.30330411199999,302.361341,591.87186
209.01,64.298424024,302.514249,591.9797
210.01,64.293534864,302.66828,592.08665
211.01,64.288635336,302.8234,592.1916100000001
212.01,64.283726736,302.979136,592.29667
213.01,64.278808416,303.135785,592.39903
214.01,64.27388102399999,303.293508,592.5004
215.01,64.26894456,303.452301,592.60126
216.01,64.263999024,303.612159,592.70193
217.01,64.259044416,303.773081,592.79955
218.01,64.254082032,303.934701,592.89675
219.01,64.24911057599999,304.096994,592.99375
220.01,64.244130696,304.260302,593.08941
221.01,64.23914304,304.424625,593.18415
222.01,64.234147608,304.589958,593.27806
223.01,64.229143752,304.756301,593.37023
224.01,64.224132768,304.92335,593.46078
225.01,64.21911400799999,305.090951,593.5524
226.01,64.21408812,305.259501,593.64341
227.01,64.209054456,305.42900199999997,593.7312
228.01,64.204014312,305.599449,593.81966
229.01,64.19896704,305.770832,593.90621
230.01,64.19391264,305.942755,593.99342
231.01,64.18885175999999,306.115276,594.07873
232.01,64.183783752,306.288719,594.1647800000001
233.01,64.178709912,306.463077,594.24921
234.01,64.173629592,306.638344,594.33164
235.01,64.168542792,306.814489,594.41376
236.01,64.16345016,306.990988,594.4963
237.01,64.158351048,307.16814999999997,594.57804
238.01,64.153246752,307.346171,594.65848
239.01,64.14813597599999,307.52504799999997,594.73819
240.01,64.143020016,307.70477900000003,594.81722
241.01,64.137898224,307.885183,594.89525
242.01,64.132771248,308.065852,594.97344
243.01,64.127639088,308.247284,595.05137
244.01,64.122501096,308.42952,595.1287
245.01,64.117358568,308.612555,595.20421
246.01,64.112210208,308.796362,595.27968
247.01,64.10705795999999,308.98044500000003,595.3543199999999
248.01,64.10189987999999,309.165076,595.42857
249.01,64.096737264,309.350486,595.50308
250.01,64.091570112,309.536668,595.57626
251.01,64.086398424,309.723618,595.64922
252.01,64.0812222,309.911073,595.72195
253.01,64.07604144,310.09873600000003,595.79241
254.01,64.07085614399999,310.287105,595.8631
255.01,64.06566696,310.476196,595.93525
256.01,64.06047324,310.666007,596.00632
257.01,64.05527563199999,310.856432,596.0755300000001
258.01,64.050073488,311.046946,596.14516
259.01,64.04486810399999,311.23804,596.21415
260.01,64.03965818399999,311.429809,596.28307
261.01,64.034444376,311.62225,596.3505
262.01,64.029227328,311.815319,596.4182000000001
263.01,64.02400639199999,312.008495,596.48579
264.01,64.018781568,312.20214599999997,596.55425
265.01,64.013553504,312.396448,596.61961
266.01,64.008321552,312.591398,596.68554
267.01,64.00308636,312.786983,596.7508
268.01,63.99784728,312.982682,596.81603
269.01,63.992605608,313.178695,596.88225
270.01,63.98736004799999,313.375312,596.94794
271.01,63.982111247999995,313.572536,597.01106
272.01,63.976859208,313.770364,597.0752
273.01,63.971604576,313.968315,597.14014
274.01,63.966346703999996,314.16648399999997,597.2026599999999
275.01,63.961085592,314.365221,597.26523
276.01,63.95582123999999,314.564527,597.32834
277.01,63.950553648,314.764403,597.39128
278.01,63.945284111999996,314.964384,597.45466
279.01,63.940010687999994,315.164526,597.51667
280.01,63.93473532,315.365199,597.57692
281.01,63.929456712000004,315.566403,597.63797
282.01,63.924174864,315.76813,597.6998
283.01,63.918891071999994,315.969904,597.75965
284.01,63.91360404,316.171877,597.82095
285.01,63.908314415999996,316.37438,597.8820000000001
286.01,63.903022848,316.577408,597.94229
287.01,63.89772804,316.780957,598.00217
288.01,63.89243063999999,316.984501,598.06178
289.01,63.887130647999996,317.18823,598.1204700000001
290.01,63.881828712,317.392457,598.17863
291.01,63.87652353599999,317.597189,598.23891
292.01,63.871216415999996,317.802408,598.2981500000001
293.01,63.865906704000004,318.00755300000003,598.3564799999999
294.01,63.8605944,318.21295299999997,598.41556
295.01,63.855280152,318.418865,598.4724100000001
296.01,63.849963312,318.625319,598.5311300000001
297.01,63.84464387999999,318.832404,598.58871
298.01,63.839322503999995,319.039758,598.64499
299.01,63.833998535999996,319.247324,598.70182
300.01,63.82867262399999,319.455307,598.76005
301.01,63.823344119999994,319.663786,598.8175699999999
302.01,63.818013672,319.87289599999997,598.8751199999999
303.01,63.812680631999996,320.082132,598.93143
304.01,63.807345647999995,320.291522,598.98683
305.01,63.80200872,320.501259,599.04264
306.01,63.7966692,320.711441,599.09956
307.01,63.791327736,320.922154,599.1553
308.01,63.785983679999994,321.132813,599.21151
309.01,63.78063768,321.343636,599.2672600000001
310.01,63.775289736,321.55476,599.32228
311.01,63.769939848,321.766299,599.37865
312.01,63.764587367999994,321.978172,599.43415
313.01,63.759232944,322.189967,599.48852
314.01,63.753876575999996,322.401948,599.5422699999999
315.01,63.74851826399999,322.61421,599.59677
316.01,63.74315736,322.82689700000003,599.652
317.01,63.737794511999994,323.039657,599.70676
318.01,63.73242971999999,323.252293,599.76203
319.01,63.727062984,323.465038,599.81556
320.01,63.721694303999996,323.67795,599.86914
321.01,63.716323032,323.891058,599.92446
322.01,63.710949815999996,324.104235,599.97766
323.01,63.705575304,324.317538,600.0306
324.01,63.700197552,324.531004,600.0834600000001
325.01,63.694818504,324.744646,600.13807
326.01,63.689437512,324.958438,600.1926000000001
327.01,63.684053928,325.172356,600.24578
328.01,63.678669047999996,325.386445,600.29881
329.01,63.673281576,325.600709,600.35108
330.01,63.667892159999994,325.815154,600.40399
331.01,63.662500152,326.02972,600.4575
332.01,63.657106848,326.244421,600.5097000000001
333.01,63.651710952,326.459285,600.5616299999999
334.01,63.64631376,326.674315,600.61424
335.01,63.640913976,326.889504,600.6669099999999
336.01,63.635512248,327.10479,600.72039
337.01,63.630107927999994,327.320213,600.7727600000001
338.01,63.624702312,327.53578600000003,600.82434
339.01,63.619294104,327.751514,600.87525
340.01,63.613883952,327.967359,600.92668
341.01,63.608471856,328.183293,600.97919
342.01,63.603057168,328.399359,601.03103
343.01,63.597641184,328.615559,601.0834600000001
344.01,63.592222608,328.831894,601.1351999999999
345.01,63.586801439999995,329.048305,601.18628
346.01,63.581378975999996,329.264817,601.23793
347.01,63.57595392,329.481449,601.2891999999999
348.01,63.57052692,329.69820500000003,601.34044
349.01,63.565097976,329.915069,601.39047
350.01,63.559666439999994,330.131983,601.44066
351.01,63.55423295999999,330.348995,601.49281
352.01,63.548796888,330.566111,601.5450599999999
353.01,63.54335887199999,330.783336,601.59491
354.01,63.537918912,331.000621,601.64536
355.01,63.53247636,331.217957,601.69586
356.01,63.527031864,331.43538,601.74695
357.01,63.521584776,331.652893,601.79727
358.01,63.516135743999996,331.870489,601.84695
359.01,63.510684768,332.08811000000003,601.8962200000001
360.01,63.5052312,332.305794,601.94646
361.01,63.499775039999996,332.523554,601.99812
362.01,63.494316936,332.741393,602.04964
363.01,63.48885624,332.95928,602.0991799999999
364.01,63.4833936,333.177178,602.14815
365.01,63.477928368,333.395133,602.19748
366.01,63.472460544,333.613149,602.24801
367.01,63.466990775999996,333.831229,602.2978499999999
368.01,63.461518416,334.049309,602.34685
369.01,63.456044112,334.26741,602.39463
370.01,63.450567215999996,334.485554,602.4464
371.01,63.445087728,334.703745,602.49713
372.01,63.439605648,334.921964,602.54598
373.01,63.434120976,335.140166,602.59338
374.01,63.42863436,335.358395,602.64335
375.01,63.423145152000004,335.576658,602.69346
376.01,63.417653351999995,335.794959,602.74189
377.01,63.41215896,336.013244,602.78932
378.01,63.406662624,336.231514,602.8378
379.01,63.401163048,336.449801,602.88842
380.01,63.39566088,336.668109,602.93742
381.01,63.390156768,336.886431,602.98647
382.01,63.384649416,337.104703,603.0353600000001
383.01,63.379140119999995,337.322968,603.08365
384.01,63.373627584,337.541238,603.13211
385.01,63.368112456,337.759519,603.18021
386.01,63.36259473599999,337.97777,603.2278699999999
387.01,63.357075072,338.195969,603.2756099999999
388.01,63.35155152,338.414158,603.3249000000001
389.01,63.346026024,338.632339,603.37426
390.01,63.340497936,338.850511,603.4222
391.01,63.334966607999995,339.068615,603.46982
392.01,63.329432688,339.286684,603.518
393.01,63.323896176,339.504735,603.5654999999999
394.01,63.318356423999994,339.722772,603.61342
395.01,63.312814728,339.94077,603.66086
396.01,63.307269143999996,340.158684,603.7080100000001
397.01,63.301721616,340.376561,603.75506
398.01,63.296170848,340.594409,603.80391
399.01,63.29061684,340.812229,603.8517400000001
400.01,63.28506024,341.029965,603.89923
401.01,63.279501048,341.247628,603.94682
402.01,63.273938616,341.465245,603.99441
403.01,63.268372944,341.682821,604.0414000000001
404.01,63.262804679999995,341.900343,604.0880500000001
405.01,63.257233824,342.11776,604.13483
406.01,63.25165908,342.335115,604.18134
407.01,63.246081743999994,342.552416,604.2287699999999
408.01,63.240501168,342.769669,604.2767699999999
409.01,63.23491799999999,342.986829,604.32458
410.01,63.229331591999994,343.203883,604.37109
411.01,63.223741944,343.420866,604.41695
412.01,63.218149055999994,343.637786,604.4639500000001
413.01,63.212552928,343.854639,604.5098399999999
414.01,63.20695356,344.071363,604.55643
415.01,63.201351599999995,344.287989,604.60262
416.01,63.1957464,344.50453400000004,604.64891
417.01,63.190137312,344.721003,604.69578
418.01,63.184525631999996,344.937373,604.74254
419.01,63.17891006399999,345.15360499999997,604.78873
420.01,63.173291903999996,345.36974399999997,604.8346300000001
421.01,63.167669855999996,345.585794,604.8808
422.01,63.162045216,345.801759,604.9272599999999
423.01,63.156416688,346.017583,604.97273
424.01,63.15078491999999,346.233273,605.01783
425.01,63.145149912,346.448857,605.06356
426.01,63.13951101599999,346.664338,605.10969
427.01,63.133869528,346.879711,605.15588
428.01,63.128224152,347.09491,605.20136
429.01,63.122574887999995,347.309976,605.24829
430.01,63.116923031999995,347.524919,605.29379
431.01,63.111267288,347.739741,605.3382899999999
432.01,63.105607656,347.954409,605.3836200000001
433.01,63.099945432,348.16889100000003,605.42842
434.01,63.094278672,348.383222,605.47262
435.01,63.088608672,348.597394,605.51809
436.01,63.082935432,348.81137,605.56432
437.01,63.077258304,349.025172,605.60937
438.01,63.071577936,349.238901,605.65492
439.01,63.06589368,349.452504,605.69966
440.01,63.060205536,349.66595,605.74422
441.01,63.054513504,349.879173,605.7881
442.01,63.048818231999995,350.0923,605.83338
443.01,63.043119072,350.305365,605.8779099999999
444.01,63.03741667199999,350.518306,605.92143
445.01,63.031709735999996,350.731083,605.96591
446.01,63.025999559999995,350.943643,606.01169
447.01,63.02028549599999,351.156164,606.05632
448.01,63.014567543999995,351.368599,606.10094
449.01,63.008845703999995,351.58090400000003,606.1447900000001
450.01,63.003119976,351.793029,606.18929
451.01,62.99739036,352.004978,606.2334599999999
452.01,62.991656856,352.216884,606.27738
453.01,62.985919464,352.428681,606.32053
454.01,62.980178183999996,352.640332,606.36356
455.01,62.974433016,352.851774,606.40761
456.01,62.96868396,353.063096,606.45231
457.01,62.962931016,353.274367,606.49663
458.01,62.95717353599999,353.485519,606.54112
