Time,Mass (g),T Back (K),T Top (K)
0.0,21.6,293.0,293.0
1.0,21.6,293.0,315.240089
2.0,21.6,293.0,337.958306
3.01,21.6,293.0,352.611488
4.01,21.599999784,293.000001,364.269406
5.01,21.599999568,293.00002,374.13402
6.01,21.59999892,293.000227,382.80752
7.01,21.599998272,293.001348,390.59104
8.01,21.599996760000003,293.005253,397.67431999999997
9.01,21.599994816000002,293.015353,404.18663000000004
10.01,21.599992008,293.036603,410.22102
11.01,21.599987904,293.075138,415.84695
12.01,21.599982504000003,293.13775,421.11824
13.01,21.59997516,293.23136,426.08346
14.01,21.599965872000002,293.362583,430.78711
15.01,21.599953992,293.537423,435.25061
16.01,21.599939088000003,293.761081,439.49544000000003
17.01,21.599920512000004,294.037869,443.54084
18.0,21.599898264,294.369335,447.38464999999997
19.0,21.599871696,294.759374,451.06138
20.0,21.599839728000003,295.211969,454.60119
21.0,21.599802144,295.726372,457.99664
22.0,21.599758296,296.302959,461.25808
23.0,21.59970732,296.941551,464.39976
24.0,21.599648784000003,297.641503,467.4318
25.0,21.599581824,298.401781,470.36073
26.0,21.599506008000002,299.219694,473.19232
27.0,21.599420040000002,300.092001,475.93171
28.0,21.599323488000003,301.015774,478.58455000000004
29.0,21.599215704,301.988271,481.15396999999996
30.0,21.599095608000002,303.007032,483.64540999999997
31.0,21.598962336,304.069247,486.0614
32.0,21.59881524,305.172004,488.40702999999996
33.0,21.59865324,306.31236,490.68453999999997
34.0,21.598475904,307.487756,492.89746
35.0,21.598281936000003,308.69527800000003,495.04832999999996
36.0,21.598070688000004,309.932485,497.14033
37.0,21.597841296000002,311.19701,499.17615
38.0,21.597592896000002,312.486237,501.15813
39.0,21.597324408000002,313.798114,503.08837
40.0,21.597035184,315.130423,504.96889
41.0,21.596724360000003,316.481107,506.80203
42.0,21.596390856,317.849025,508.58996
43.0,21.59603424,319.234995,510.33415
44.01,21.595651272,320.647193,512.04562
45.01,21.595242816000003,322.074616,513.71603
46.01,21.5948106,323.50642700000003,515.33988
47.01,21.594351384000003,324.946255,516.92724
48.01,21.593864736,326.395143,518.4781
49.01,21.593349576,327.852909,519.9961000000001
50.01,21.592805040000002,329.318724,521.4799399999999
51.01,21.59223048,330.791654,522.9341
52.01,21.591625248000003,332.27071,524.35501
53.01,21.590988048,333.754938,525.7431300000001
54.01,21.590318448,335.243368,527.0986
55.01,21.5896158,336.735079,528.42246
56.01,21.588879024,338.229156,529.71721
57.01,21.588107688,339.724692,530.9835499999999
58.01,21.587300712,341.22087999999997,532.22262
59.01,21.586457448,342.716849,533.43568
60.01,21.585577464,344.211792,534.62428
61.01,21.58465968,345.704813,535.7889700000001
62.01,21.583703448,347.195018,536.93061
63.01,21.582708336000003,348.681109,538.0504000000001
64.01,21.581673264,350.16243,539.14904
65.01,21.580597800000003,351.639759,540.22735
66.01,21.579481296,353.11334999999997,541.2861399999999
67.01,21.578322888000002,354.58299999999997,542.32612
68.01,21.577121928,356.048641,543.34793
69.01,21.575877984,357.509968,544.35225
70.01,21.574590192000002,358.966857,545.33959
71.01,21.573257904000002,360.418986,546.3104900000001
72.01,21.571880472000004,361.866282,547.26559
73.0,21.570464808,363.301273,548.20075
74.0,21.569002920000003,364.731014,549.12111
75.0,21.567487032000003,366.162491,550.0316399999999
76.0,21.565923408000003,367.588251,550.92818
77.0,21.564311616,369.008214,551.81111
78.0,21.562651008,370.422123,552.68075
79.0,21.560940936,371.82991300000003,553.5376200000001
80.0,21.559180752000003,373.23136,554.38198
81.0,21.557370024,374.62637,555.2141899999999
82.0,21.555507888,376.01485,556.03458
83.0,21.553594128,377.39661,556.84326
84.0,21.551627664,378.77159,557.64038
85.0,21.549608496,380.13965,558.4266700000001
86.0,21.547535544000002,381.50068,559.20213
87.0,21.545408376,382.85456999999997,559.96724
88.0,21.543226344,384.20128,560.7218399999999
89.0,21.540989232,385.54071,561.4660799999999
90.0,21.538695960000002,386.87278000000003,562.2004400000001
91.0,21.536346312000003,388.19744000000003,562.92544
92.0,21.533939640000003,389.51451,563.64081
93.0,21.531475296,390.82405,564.3464
94.0,21.528952632,392.12592,565.04291
95.0,21.526371432,393.42005,565.73102
96.0,21.523730616,394.70644,566.40958
97.0,21.521029968,395.98497,567.07925
98.0,21.51826884,397.25561,567.7411099999999
99.0,21.5154468,398.51833999999997,568.39425
100.0,21.512562984000002,399.77307,569.03842
101.0,21.509617176,401.01980000000003,569.67529
102.0,21.506608512,402.25841,570.3039
103.0,21.50353656,403.48886,570.92383
104.0,21.500400672,404.71114,571.53706
105.0,21.497200416000002,405.92514,572.14182
106.0,21.493935144,407.13085,572.7387100000001
107.0,21.490604424,408.32825,573.32934
108.0,21.487207608000002,409.51719,573.91112
109.0,21.483744048000002,410.69768999999997,574.48712
110.0,21.480213096,411.86965,575.0562600000001
111.0,21.476614536000003,413.03295,575.61769
112.0,21.47294772,414.18758,576.1740199999999
113.0,21.469211784000002,415.33337,576.72194
114.0,21.465406512,416.47026,577.26505
115.0,21.461531256,417.59812,577.8002799999999
116.0,21.457585584,418.71675,578.32947
117.0,21.453568632,419.82601,578.85274
118.0,21.449480184000002,420.9257,579.36835
119.0,21.445319592,422.01544,579.8797500000001
120.0,21.441086208,423.09474,580.38219
121.0,21.4367796,424.16277,580.88148
122.0,21.432399552,425.21949,581.37169
123.0,21.427944984,426.26328,581.8584599999999
124.0,21.423415896,427.29368999999997,582.3366599999999
125.0,21.418811424,428.31165,582.81124
126.0,21.414131352000002,429.3182,583.27767
127.0,21.409375248000003,430.31413,583.74024
128.0,21.404542464000002,431.29993,584.1952699999999
129.0,21.399632352,432.27575,584.646
130.0,21.394644912000004,433.24214,585.08971
131.0,21.389579496,434.19953,585.5288499999999
132.0,21.384435672000002,435.14801,585.96158
133.0,21.379212792,436.08798,586.38937
134.0,21.373911072000002,437.01986,586.81068
135.0,21.368529432000003,437.94367,587.22799
136.0,21.363067872000002,438.85962,587.63824
137.0,21.35752596,439.76805,588.04485
138.0,21.351903264,440.66904999999997,588.44456
139.0,21.346199568,441.56275,588.84055
140.0,21.34041444,442.44942000000003,589.22978
141.0,21.334547664000002,443.32926,589.61531
142.0,21.328598808000002,444.20259,589.99459
143.0,21.322567656,445.06938,590.3702000000001
144.0,21.316453776,445.92984,590.7395200000001
145.0,21.310257168,446.78413,591.1047599999999
146.0,21.3039774,447.6323,591.4650300000001
147.0,21.297614256,448.47441000000003,591.82041
148.0,21.291167520000002,449.31066999999996,592.1709900000001
149.0,21.284636976,450.14142000000004,592.5169000000001
150.0,21.278022408,450.96658,592.8583
151.0,21.271323600000002,451.78634,593.19519
152.0,21.264540336000003,452.60087999999996,593.5274
153.0,21.257672616,453.41022,593.85546
154.0,21.250720224000002,454.21458,594.17913
155.0,21.243682944000003,455.01408000000004,594.4983199999999
156.0,21.23656056,455.80885,594.81358
157.0,21.229353288000002,456.59905000000003,595.12433
158.0,21.222060480000003,457.38473,595.43127
159.0,21.214682568,458.16606,595.73401
160.01,21.207181536,458.94735000000003,596.034
161.01,21.199594104,459.72494,596.33098
162.01,21.191958720000002,460.49534,596.62162
163.01,21.184237368,461.26383,596.9087099999999
164.01,21.176430480000004,462.0306,597.1928700000001
165.01,21.168537624000002,462.79544999999996,597.47237
166.01,21.1605588,463.55800999999997,597.74915
167.01,21.152494224,464.31797,598.02152
168.01,21.144343464000002,465.07538,598.29159
169.01,21.136106520000002,465.83029,598.55728
170.01,21.127783608,466.58262,598.8197700000001
171.01,21.119374512,467.33218,599.07963
172.01,21.110879232000002,468.07885,599.33568
173.01,21.102297768000003,468.82280000000003,599.5891899999999
174.01,21.09363012,469.56399999999996,599.8387299999999
175.01,21.084876288,470.30227,600.08654
176.01,21.076036056,471.03756999999996,600.33043
177.01,21.06710964,471.77006,600.5721
178.01,21.058096824,472.49968,600.8098600000001
179.01,21.048997824,473.22631,601.0465300000001
180.01,21.039812424,473.94998,601.27909
181.01,21.03054084,474.67075,601.50987
182.01,21.02118264,475.38853,601.7370900000001
183.01,21.011738472,476.10332,601.9628
184.01,21.002207688000002,476.8154,602.18586
185.01,20.992590720000003,477.52453,602.4060099999999
186.01,20.982887352000002,478.2305,602.62444
187.01,20.9730978,478.93363,602.83997
188.01,20.963221632,479.63397,603.05393
189.01,20.95325928,480.33131000000003,603.2649200000001
190.01,20.943210744,481.0256,603.47496
191.01,20.933075592,481.71709999999996,603.68132
192.01,20.922854256,482.40567999999996,603.88688
193.01,20.912546520000003,483.09131,604.08997
194.01,20.9021526,483.77412000000004,604.2912699999999
195.01,20.891672064,484.454,604.4909700000001
196.01,20.881105344,485.13084000000003,604.68736
197.01,20.87045244,485.80508,604.8841199999999
198.01,20.859712920000003,486.47645,605.07728
199.01,20.848887216,487.14468999999997,605.2695699999999
200.01,20.837975112,487.81025999999997,605.46057
201.01,20.826976824,488.47305,605.6482599999999
202.01,20.815892136000002,489.13287,605.8361199999999
203.01,20.804721048,489.79017999999996,606.02147
204.01,20.793463560000003,490.44469000000004,606.2058099999999
205.01,20.782119888,491.09616,606.38849
206.01,20.770689816,491.7451,606.56911
207.01,20.759173344,492.39126999999996,606.7493400000001
208.01,20.747570472,493.03468,606.92705
209.01,20.735881416,493.6755,607.10419
210.01,20.72410596,494.31343000000004,607.2804100000001
211.01,20.712244104000003,494.94867,607.45397
212.01,20.700296064000003,495.58149000000003,607.62726
213.01,20.688261624000003,496.21145,607.79919
214.01,20.676140784,496.83882,607.96879
215.01,20.66393376,497.46360000000004,608.13948
216.01,20.651640336,498.08554000000004,608.3070700000001
217.01,20.639260512,498.70519,608.4737600000001
218.01,20.626794504,499.32216,608.64024
219.01,20.614242096,499.93664,608.8043299999999
220.01,20.601603504000003,500.54873,608.9681
221.01,20.588878512,501.15794,609.13174
222.01,20.576067336,501.7649,609.29247
223.01,20.56316976,502.36935,609.4537
224.01,20.550186216,502.97130000000004,609.61343
225.01,20.537116272000002,503.57097,609.7712200000001
226.01,20.523960144000004,504.16785,609.92967
227.01,20.510717616,504.76257,610.08695
228.01,20.49738912,505.35485,610.24182
229.01,20.48397444,505.94473,610.3980300000001
230.01,20.470473792,506.53244,610.55183
231.01,20.456886744000002,507.1174,610.70427
232.01,20.443213728000003,507.70036,610.85748
233.01,20.429454744,508.28085,611.00928
234.01,20.415609792,508.85918000000004,611.15903
235.01,20.401678872,509.43532,611.31035
236.01,20.387661768,510.00888,611.45895
237.01,20.373559128000004,510.58054000000004,611.60663
238.01,20.359370304000002,511.14963,611.7551000000001
239.01,20.345095944,511.71688,611.9017200000001
240.01,20.330735616000002,512.28181,612.0472199999999
241.01,20.316289752,512.84474,612.19361
242.01,20.301758136,513.40561,612.3383699999999
243.01,20.287140984000004,513.9640899999999,612.48114
244.01,20.272438296,514.52081,612.62561
245.01,20.257650072,515.07512,612.76756
246.01,20.242776528000004,515.62784,612.90879
247.01,20.227817664,516.17826,613.0511
248.01,20.212773480000003,516.72687,613.19165
249.01,20.197643976000002,517.27333,613.3305700000001
250.01,20.182429584,517.8179299999999,613.47063
251.01,20.167129872,518.3607,613.6094499999999
252.01,20.151745488,518.90155,613.7458300000001
253.01,20.136276216000002,519.44072,613.88424
254.01,20.120722056,519.97772,614.02111
255.01,20.105083224,520.5133,614.15629
256.01,20.089359936,521.04676,614.2924800000001
257.01,20.073551976,521.57898,614.42759
258.01,20.057659776,522.10918,614.56079
259.01,20.041683336000002,522.63832,614.69466
260.01,20.025622440000003,523.16569,614.8282899999999
261.01,20.009477736,523.6921,614.95955
262.01,19.993249008000003,524.21694,615.09179
263.01,19.976936472000002,524.74031,615.2242699999999
264.01,19.960540344,525.26194,615.35299
265.01,19.944060408000002,525.78185,615.48415
266.01,19.927497096,526.29994,615.61393
267.01,19.910850408,526.81615,615.74131
268.01,19.89412056,527.33049,615.87076
269.01,19.877307552,527.84293,615.99865
270.01,19.860411600000003,528.35349,616.12509
271.01,19.843432704,528.86213,616.2524900000001
272.01,19.826371296,529.36886,616.3786299999999
273.01,19.809227376000003,529.8735899999999,616.5037
274.01,19.792000728,530.37642,616.62883
275.01,19.774692,530.87726,616.7533000000001
276.01,19.757301192,531.3761999999999,616.87669
277.01,19.739828520000003,531.87316,617.0007
278.01,19.722273768,532.3682,617.1234
279.01,19.704637368000004,532.86122,617.2456199999999
280.01,19.686919536,533.35232,617.36766
281.01,19.669120272,533.84143,617.4884500000001
282.01,19.651239576000002,534.32862,617.60938
283.01,19.633278096,534.81383,617.7293199999999
284.01,19.615235400000003,535.29711,617.84851
285.01,19.597112136,535.77846,617.96826
286.01,19.578908304000002,536.25785,618.08645
287.01,19.560623904000003,536.7353,618.20461
288.01,19.542259152000003,537.21075,618.32239
289.01,19.523814480000002,537.68433,618.4389100000001
290.01,19.505289672000004,538.15589,618.5555899999999
291.01,19.48668516,538.62564,618.67145
292.01,19.468000944000003,539.09334,618.7864099999999
293.01,19.449237240000002,539.5592300000001,618.9016899999999
294.01,19.430394264,540.02304,619.01593
295.01,19.411472232,540.48507,619.1301100000001
296.01,19.392471144,540.94506,619.24342
297.01,19.373391216,541.4032500000001,619.3562400000001
298.01,19.35423288,541.85947,619.46859
299.01,19.33499592,542.3138200000001,619.58046
300.01,19.315680768,542.7662399999999,619.69132
301.01,19.296287424,543.21673,619.80249
302.01,19.276816104,543.66539,619.91251
303.01,19.257267024,544.11205,620.0224000000001
304.01,19.237640616,544.55696,620.13212
305.01,19.217936448,544.99986,620.24047
306.01,19.198155384000003,545.44101,620.34911
307.01,19.178296992000003,545.88021,620.4568300000001
308.01,19.15836192,546.31759,620.56369
309.01,19.138349952000002,546.75307,620.67067
310.01,19.11826152,547.18664,620.77688
311.01,19.09809684,547.61844,620.88202
312.01,19.077855912,548.04826,620.98795
313.01,19.057538952,548.47637,621.09266
314.01,19.037146176,548.9025300000001,621.19641
315.01,19.016678016000004,549.32691,621.30078
316.01,18.99613404,549.74941,621.4036
317.01,18.975515112,550.17003,621.50617
318.01,18.954821016,550.5889,621.60851
319.01,18.934051968000002,551.00581,621.70998
320.01,18.913208184000002,551.42103,621.81083
321.01,18.89228988,551.83435,621.9119900000001
322.01,18.871297056,552.24586,622.0119
323.01,18.85023036,552.65558,622.11156
324.01,18.829089576,553.06336,622.2113400000001
325.01,18.80787492,553.46947,622.3093799999999
326.01,18.786586824,553.87365,622.40783
327.01,18.765225072,554.27607,622.50559
328.01,18.743790312,554.67673,622.60231
329.01,18.722282544000002,555.07548,622.69908
330.01,18.700701984000002,555.47255,622.7952
331.01,18.679048632,555.86769,622.89065
332.01,18.657323136000002,556.26109,622.98595
333.01,18.63552528,556.65272,623.08098
334.01,18.61365528,557.0424399999999,623.17487
335.01,18.591713568,557.43052,623.26847
336.01,18.569700360000002,557.8167100000001,623.36226
337.01,18.547615656,558.2011299999999,623.4542
338.01,18.525459888,558.58385,623.54654
339.01,18.503233272000003,558.9646700000001,623.63855
340.01,18.480935808,559.3438100000001,623.72894
341.01,18.458567928,559.72113,623.81989
342.01,18.436129848,560.09659,623.91025
343.01,18.413621784,560.47041,623.99956
344.01,18.391043736000004,560.8423399999999,624.08885
345.01,18.368396352,561.21254,624.17785
346.01,18.345679848000003,561.58103,624.2656099999999
347.01,18.322894224000002,561.94764,624.35344
348.01,18.300039912000003,562.31258,624.4407
349.01,18.277117128,562.6757299999999,624.5272299999999
350.01,18.254126088,563.03701,624.61316
351.01,18.231067224,563.39665,624.6994
352.01,18.207940752000003,563.7544700000001,624.7838899999999
353.01,18.184747104000003,564.11048,624.8688099999999
354.01,18.161486496000002,564.46486,624.95353
355.01,18.138159144000003,564.81738,625.03658
356.01,18.114765264000003,565.16816,625.12051
357.01,18.091305504,565.51724,625.20318
358.01,18.067780296000002,565.8644400000001,625.28531
359.01,18.04418964,566.20994,625.36735
360.01,18.020533968000002,566.5537400000001,625.4486899999999
361.01,17.996813712,566.89566,625.52938
362.01,17.973029304,567.23591,625.60988
363.01,17.949181176,567.57444,625.6897799999999
364.01,17.925269544000002,567.9111,625.7690299999999
365.01,17.901295056000002,568.2461000000001,625.84818
366.01,17.877257928,568.57939,625.9266700000001
367.01,17.853158592,568.9108100000001,626.00472
368.01,17.828997912000002,569.24056,626.08257
369.01,17.804775672,569.56858,626.15957
370.01,17.780492952,569.89473,626.23636
371.01,17.756149968000003,570.21919,626.3126
372.01,17.731747368,570.54195,626.38834
373.01,17.707285368,570.86284,626.46362
374.01,17.682764832000004,571.1820299999999,626.53849
375.01,17.658186192000002,571.49953,626.61285
376.01,17.63354988,571.81518,626.68668
377.01,17.608856544,572.1290799999999,626.7602899999999
378.01,17.584107048000003,572.44128,626.8332
379.01,17.559301608000002,572.75163,626.9057700000001
380.01,17.534440872,573.06014,626.97822
381.01,17.509525704,573.36697,627.0499199999999
382.01,17.484556752000003,573.67193,627.1211000000001
383.01,17.459534448000003,573.9748999999999,627.19228
384.01,17.434459656,574.2764199999999,627.26254
385.01,17.409333240000002,574.5762199999999,627.33249
386.01,17.384155416000002,574.87409,627.4022199999999
387.01,17.358927264000002,575.17038,627.47125
388.01,17.333649432,575.4650899999999,627.5398700000001
389.01,17.308323,575.7579499999999,627.6082
390.01,17.282948184000002,576.0490199999999,627.67608
391.01,17.257526064,576.33871,627.7433
392.01,17.232057504,576.6266800000001,627.81034
393.01,17.206543368000002,576.91274,627.87706
394.01,17.180984304000003,577.1973800000001,627.94309
395.01,17.155381392000002,577.48047,628.0089800000001
396.01,17.129735280000002,577.76178,628.0745099999999
397.01,17.104047048,578.04135,628.13928
398.01,17.078317560000002,578.31953,628.20384
399.01,17.052547464,578.5960299999999,628.26821
400.01,17.026738272,578.8706500000001,628.33173
401.01,17.000890416,579.1437900000001,628.3949299999999
402.01,16.975005192,579.4154599999999,628.45822
403.01,16.949083248,579.68542,628.5204699999999
404.01,16.92312588,579.95354,628.5824600000001
405.01,16.897133952,580.22033,628.64449
406.01,16.87110876,580.4855600000001,628.70562
407.01,16.845050952,580.7490399999999,628.76641
408.01,16.818961608000002,581.0108,628.82716
409.01,16.792842024000002,581.27125,628.88727
410.01,16.766693280000002,581.5301099999999,628.94703
411.01,16.740516456,581.7872199999999,629.00661
412.01,16.714312416000002,582.04269,629.0657100000001
413.01,16.68808224,582.29679,629.12438
414.01,16.661827440000003,582.54928,629.1825200000001
415.01,16.635549096000002,582.79999,629.24074
416.01,16.609247856,583.0491099999999,629.29818
417.01,16.582925448,583.2968900000001,629.35517
418.01,16.556582736,583.54307,629.41224
419.01,16.530221016000002,583.7875,629.4686300000001
420.01,16.503841368000003,584.0303200000001,629.52445
421.01,16.477445088000003,584.27184,629.5804800000001
422.01,16.451033256000002,584.51179,629.6356900000001
423.01,16.424607168,584.75005,629.6905300000001
424.01,16.398167904,584.98662,629.7454
425.01,16.371716976000002,585.22189,629.79951
426.01,16.345255248,585.4556,629.85343
427.01,16.3187838,585.6876199999999,629.87729
428.01,16.292303712000002,585.9177,629.9237800000001
429.01,16.265815848,586.14647,629.97681
430.01,16.239321288,586.37379,630.03019
431.01,16.212821328,586.59952,630.0834500000001
432.01,16.18631748,586.8235099999999,630.13673
433.01,16.159810608,587.04603,630.18944
434.01,16.13330244,587.2672299999999,630.24019
435.01,16.10679384,587.4869,630.29115
436.01,16.080286320000003,587.70496,630.34257
437.01,16.053781176,587.92133,630.3938800000001
438.01,16.027279704,588.13639,630.44481
