Time,Mass,HRR
[s],[g],[kW/m2]
0,73.45,-1.889216159
1,73.1383,-0.535539574
2,72.710695,1.698058882
3,72.692367,1.273894321
4,72.858433,-0.443663419
5,72.92173,-0.465976258
6,72.907029,2.571711483
7,72.860114,4.712710981
8,72.82943,4.177612558
9,72.861209,3.605734426
10,72.836579,3.832405874
11,72.802493,5.179288717
12,72.780436,3.889588908
13,72.770158,1.83427247
14,72.763354,0.87769147
15,72.744436,2.115294122
16,72.752584,0.065475781
17,72.733145,-5.907498328
18,72.704465,-15.45456149
19,72.651609,-26.49124242
20,72.554105,-32.82354157
21,72.427576,-42.08393869
22,72.340872,-43.45515052
23,72.197024,-31.41049958
24,72.011534,13.27430195
25,71.811711,89.48950449
26,71.627334,141.7178802
27,71.436802,197.2033333
28,71.242006,262.2906959
29,71.030487,299.2871636
30,70.791893,347.2228052
31,70.551865,380.1552992
32,70.345563,412.5289218
33,70.101238,445.5657082
34,69.821103,452.4330895
35,69.586902,472.3200811
36,69.344714,502.4482812
37,69.109792,521.3535097
38,68.844668,530.2418685
39,68.579169,539.5489748
40,68.333156,581.5192232
41,68.071708,592.9285307
42,67.8016,596.4280959
43,67.560187,607.0733263
44,67.29016,621.1393695
45,67.020935,632.0442493
46,66.748601,641.9347049
47,66.486254,622.3153317
48,66.268988,627.4952736
49,66.005036,630.2857859
50,65.745856,618.1066508
51,65.456171,633.5664458
52,65.192194,644.7309736
53,64.919871,637.000398
54,64.626186,655.1296408
55,64.326789,674.2720885
56,64.061839,655.73775
57,63.784931,646.2547632
58,63.501416,658.0395933
59,63.229579,646.9694641
60,62.918614,664.3570132
61,62.628557,689.0491448
62,62.328038,698.1383099
63,62.062429,703.902088
64,61.803054,697.5016392
65,61.509952,670.647682
66,61.205551,664.9501386
67,60.919293,692.4430231
68,60.628518,712.9304966
69,60.308596,708.8310085
70,60.012373,711.9632966
71,59.730717,706.6254537
72,59.451545,710.1557711
73,59.178294,692.6307531
74,58.874957,707.9098109
75,58.564293,700.8204301
76,58.286303,682.6278958
77,57.956277,688.7105887
78,57.627638,692.0082244
79,57.335861,673.7908561
80,57.07476,680.6762117
81,56.764585,696.6906043
82,56.462897,735.2732192
83,56.170831,723.5672111
84,55.8641,712.2527158
85,55.553357,720.9470419
86,55.257929,742.1187159
87,54.966524,745.7522273
88,54.645588,745.0513642
89,54.321998,738.1515636
90,54.007975,726.1162606
91,53.699509,731.8971576
92,53.409641,742.6918199
93,53.10483,707.643542
94,52.761875,723.4331101
95,52.489183,755.6409199
96,52.228207,747.5831666
97,51.883562,747.2600531
98,51.543076,771.0268517
99,51.201979,790.6561853
100,50.833039,803.9935964
101,50.505595,760.1159227
102,50.195598,738.709253
103,49.884216,772.5106339
104,49.567379,761.6990593
105,49.220172,768.4313966
106,48.895433,764.6610302
107,48.566075,790.8424462
108,48.229207,791.421085
109,47.891154,806.4424282
110,47.51231,820.7323312
111,47.17213,806.7670399
112,46.867154,818.7112482
113,46.514861,880.1096031
114,46.157273,825.9483847
115,45.824381,822.4526995
116,45.485694,822.0038052
117,45.153743,821.8461944
118,44.812327,808.9398335
119,44.462613,800.1352781
120,44.107964,836.4546947
121,43.766773,825.4634194
122,43.442935,829.0540418
123,43.118352,822.0270467
124,42.739241,815.2417867
125,42.322858,811.8846928
126,41.975475,819.9965526
127,41.633289,811.3376119
128,41.321632,819.0460912
129,40.96287,864.632265
130,40.576314,816.7762045
131,40.219443,852.3158125
132,39.880447,851.8447013
133,39.547586,810.3011316
134,39.183399,821.0157626
135,38.820784,833.9726432
136,38.473821,866.421301
137,38.105629,905.8506003
138,37.74722,921.8934101
139,37.39275,938.7470646
140,37.040737,899.5545605
141,36.61803,894.1309444
142,36.14754,885.586487
143,35.787504,961.0017417
144,35.428488,926.9942741
145,35.047865,865.0374217
146,34.661379,959.3733875
147,34.273745,931.7024722
148,33.90075,882.2691745
149,33.507256,936.4551459
150,33.157702,977.507996
151,32.779435,968.6807895
152,32.395353,923.0250144
153,31.991497,894.3968758
154,31.577269,931.7862045
155,31.172047,935.3379541
156,30.785512,970.4977763
157,30.409119,1044.306623
158,30.00748,997.2147937
159,29.594268,1033.226386
160,29.163215,1043.926784
161,28.728158,972.9011907
162,28.31931,950.2441376
163,27.934884,1046.538326
164,27.539339,1038.754695
165,27.090479,937.5588226
166,26.663897,987.5208154
167,26.243071,1071.341787
168,25.824624,1156.81704
169,25.393816,1115.74817
170,24.933745,1034.411648
171,24.497024,1042.147417
172,24.062588,1003.423585
173,23.670323,1050.836828
174,23.267956,1133.777435
175,22.808462,1156.263373
176,22.322821,1094.165524
177,21.890483,1032.308875
178,21.491713,1066.247114
179,21.092308,1095.418829
180,20.634645,1045.459956
181,20.162432,1020.441749
182,19.709443,1053.145947
183,19.303487,1007.084759
184,18.852167,1046.903282
185,18.423043,1105.419156
186,17.993182,1045.846768
187,17.542884,1122.349798
188,17.111722,1125.706997
189,16.663456,1045.484038
190,16.196337,1086.092754
191,15.764855,1073.004224
192,15.324396,1145.105213
193,14.862812,1139.057854
194,14.388738,1159.35621
195,13.908243,1095.28599
196,13.423074,1077.971432
197,12.961843,1062.875069
198,12.470725,1125.507218
199,11.981044,1091.382025
200,11.52983,1134.488562
201,11.04138,1091.345959
202,10.529241,991.2609307
203,10.047485,1037.299504
204,9.545875,1116.340907
205,9.055872,1117.055474
206,8.548534,1303.774339
207,8.038861,1256.330853
208,7.526745,1258.98369
209,7.023116,1437.379831
210,6.486265,1361.1077
211,6.012781,1296.012542
212,5.529917,1182.415476
213,5.075299,1226.841867
214,4.534832,1188.266321
215,4.007564,1244.02204
216,3.50742,1378.080633
217,3.058282,1278.199503
218,2.607383,1318.405632
219,2.219178,1364.051948
220,1.855204,1344.10755
221,1.497556,1282.925798
222,1.224632,1336.304908
223,0.966893,1284.978998
224,0.725375,1223.894386
225,0.561655,1146.563884
226,0.404541,1091.386965
227,0.248566,1030.045305
228,0.096397,929.5138893
229,-0.039464,849.2823273
230,-0.169179,747.4488612
231,-0.228868,656.5573047
232,-0.283935,567.1140554
233,-0.385923,477.6802112
234,-0.417792,439.5308147
235,-0.504406,400.4944241
236,-0.599049,363.67186
237,-0.645406,337.1871915
238,-0.709581,300.9180085
239,-0.794787,271.3631075
240,-0.866982,244.2594097
241,-0.909741,215.0164103
242,-0.938169,200.6428027
243,-0.991548,186.9081839
244,-1.021813,176.9201587
245,-1.021812,167.04508
246,-1.051663,155.1600264
247,-1.098261,144.1213956
248,-1.082867,130.9602967
249,-1.072048,113.2272465
250,-1.10487,102.9537359
251,-1.113337,90.15840836
252,-1.116935,76.89956866
253,-1.129519,66.02471061
254,-1.140035,56.88513997
255,-1.160542,53.02406554
256,-1.195633,45.68686782
257,-1.208675,39.2927064
258,-1.180732,36.86864771
259,-1.163149,36.08864381
260,-1.196793,33.82565688
261,-1.251337,30.30015599
262,-1.269,27.85253526
263,-1.249216,27.37643778
264,-1.188801,24.50666271
265,-1.184905,22.1204094
266,-1.250163,21.27200387
267,-1.287098,22.4543173
268,-1.307163,21.80060543
269,-1.273572,20.23273156
270,-1.253763,20.09883434
271,-1.254661,21.87487529
272,-1.247269,20.68507491
273,-1.144959,17.86423908
274,-1.049869,16.48697393
275,-1.260126,16.58229376
276,-1.361309,16.13486174
277,-1.298574,12.29964202
278,-1.245103,8.648117002
279,-1.240236,8.736716835
280,-1.257845,9.496498174
281,-1.246012,8.412984518
282,-1.236512,6.47962085
283,-1.258541,7.293960077
284,-1.280848,7.470883145
285,-1.289685,5.118249058
286,-1.302038,4.296898713
287,-1.288693,4.790052366
288,-1.281361,5.068587888
289,-1.301507,3.864770474
290,-1.292543,2.264611016
291,-1.235613,2.402633447
292,-1.250767,3.715453151
293,-1.271066,3.281514854
294,-1.297544,1.813208771
295,-1.251027,0.51579726
296,-1.233247,0.709992907
297,-1.272249,1.758591163
298,-1.265402,2.961493308
299,-1.285275,1.089350308
300,-1.293356,-0.597984752
301,-1.307713,-0.153692806
302,-1.325485,1.604661753
303,-1.289992,0.598085527
304,-1.281754,-0.581403802
305,-1.31047,0.285218906
306,-1.297922,1.960075226
307,-1.306525,0.70656857
308,-1.311886,-0.584840345
309,-1.305772,-0.014729319
310,-1.284593,1.272540502
311,-1.284562,1.034038819
312,-1.320312,-0.807124508
313,-1.33872,-1.252249169
314,-1.310374,0.148886043
315,-1.279351,1.528918708
316,-1.304791,-0.203144994
317,-1.342478,-1.668094413
318,-1.342023,-1.312484441
319,-1.270109,0.365716252
320,-1.274841,0.803636688
321,-1.331595,-0.435825076
322,-1.354102,-1.416889131
323,-1.349205,-0.80400313
324,-1.344627,1.393955559
325,-1.302061,0.443008761
326,-1.308516,0.239337346
327,-1.321618,2.482005431
328,-1.322327,2.818886765
329,-1.333844,1.310359979
330,-1.34584,0.035518768
331,-1.354738,-0.24042571
332,-1.34352,1.485043405
333,-1.392574,1.215489529
334,-1.389751,-0.278353579
335,-1.359815,-1.188954171
336,-1.328319,-1.091031311
337,-1.330789,1.298892911
338,-1.340716,1.242125845
339,-1.323994,0.982632365
340,-1.344727,3.128231943
341,-1.359095,6.72735294
342,-1.346569,8.059951135
343,-1.357603,6.265511571
344,-1.33674,5.10200427
345,-1.343615,5.448093001
346,-1.388998,6.517206515
347,-1.392366,5.884994263
348,-1.373118,3.952960184
349,-1.345196,4.049548866
350,-1.372826,5.631399557
351,-1.362881,3.070679675
352,-1.373718,1.235132065
353,-1.36467,0.977855679
354,-1.36456,2.06394234
355,-1.363988,1.609984571
356,-1.356,-0.258864831
357,-1.38726,-0.85052904
358,-1.384505,0.933069362
359,-1.418801,1.452383505
360,-1.381682,-0.17460375
361,-1.385349,-0.470390275
362,-1.369995,1.473365706
363,-1.42056,1.821314648
364,-1.489021,-0.059475148
365,-1.491344,-0.368711678
