Time,Mass,Back Surface Temperature,Top Surface Temperature
[s],[g],[K],[K]
0,138,303.15,303.15
1.1,138,303.15,315.2039564
2,138,303.15,325.0381721
3,138,303.15,335.0686151
4,138,303.15,344.2940816
5.1,138,303.15,353.668244
6.1,138,303.149999,361.6004229
7.1,138,303.149999,369.055301
8.1,137.99999,303.149999,376.0967669
9.1,137.99998,303.149999,382.7757659
10.1,137.99997,303.149999,389.1335145
11.1,137.99995,303.149999,395.2038206
12.1,137.99992,303.149999,401.0147765
13.1,137.99987,303.149999,406.589993
14.1,137.99981,303.149999,411.9495143
15.1,137.99972,303.149999,417.1105088
16.1,137.9996,303.149998,422.0877838
17.1,137.99943,303.149998,426.8942175
18.1,137.99921,303.149998,431.5410513
19,137.99895,303.149998,435.59494
20,137.99861,303.149998,439.964785
21,137.99816,303.149998,444.2006088
22,137.9976,303.149998,448.3093388
23,137.99692,303.149998,452.2971638
24,137.99608,303.149998,456.1695975
25,137.99506,303.149998,459.9316025
26,137.99385,303.149998,463.5876413
27,137.99241,303.149998,467.1417588
28,137.99071,303.149999,470.597635
29,137.98874,303.15,473.9586463
30,137.98645,303.150001,477.22792
31,137.98382,303.150004,480.4083813
32,137.98082,303.150008,483.5027938
33,137.97743,303.150015,486.5138163
34,137.97362,303.150025,489.4440275
35,137.96936,303.150039,492.2959688
36,137.96464,303.150059,495.0721725
37,137.95943,303.150087,497.7751838
38,137.95374,303.150126,500.4075788
39,137.94754,303.150178,502.971995
40,137.94083,303.150246,505.47112
41,137.93362,303.150336,507.9077
42,137.92591,303.150452,510.28453
43,137.91771,303.1506,512.6044613
44,137.90904,303.150786,514.8703575
45,137.89993,303.151019,517.0851125
46,137.89038,303.151307,519.2515913
47,137.88044,303.151659,521.3726275
48,137.87014,303.152087,523.45099
49,137.85951,303.152603,525.489355
50,137.84858,303.15322,527.4902838
51,137.83739,303.153951,529.456195
52,137.82599,303.154814,531.3893388
53,137.8144,303.155825,533.2917775
54,137.80265,303.157001,535.16538
55,137.7908,303.158364,537.0117863
56,137.77885,303.159933,538.8324313
57,137.76684,303.161731,540.6285075
58,137.75479,303.16378,542.400995
59,137.74273,303.166107,544.1506513
60,137.73066,303.168735,545.8780338
61,137.71859,303.171693,547.583505
62,137.70654,303.175009,549.26727
63,137.6945,303.178712,550.9293763
64,137.68248,303.182831,552.5697575
65,137.67046,303.187399,554.1882513
66,137.65844,303.192447,555.7846213
67,137.64641,303.198009,557.3585925
68,137.63435,303.204119,558.9098575
69,137.62225,303.210811,560.4381088
70,137.61009,303.218122,561.9430488
71,137.59786,303.226086,563.4243975
72,137.58553,303.234742,564.8819075
73,137.57308,303.244125,566.3153675
74,137.56051,303.254275,567.7246013
75,137.54778,303.265229,569.1094775
76.1,137.53423,303.277646,570.60458
77.1,137.52047,303.291022,571.9380088
78.1,137.50715,303.304715,573.2468763
79.1,137.4936,303.319372,574.53118
80.1,137.47981,303.335032,575.7909438
81.1,137.46574,303.351735,577.0262175
82.1,137.45139,303.369521,578.2370688
83.1,137.43675,303.388427,579.42359
84.1,137.42178,303.408495,580.5858913
85.1,137.40648,303.429762,581.724105
86.1,137.39082,303.452268,582.8383788
87.1,137.37481,303.476052,583.9288888
88.1,137.3584,303.501151,584.9958175
89.1,137.34161,303.527604,586.0393725
90.1,137.3244,303.555448,587.0597925
91.1,137.30677,303.584721,588.0573163
92.1,137.2887,303.615459,589.03222
93.1,137.27018,303.647698,589.98479
94.1,137.2512,303.681475,590.9153275
95.1,137.23176,303.716825,591.8241675
96.1,137.21183,303.753781,592.7116525
97.1,137.19141,303.792379,593.57814
98.1,137.1705,303.832652,594.424005
99.1,137.14909,303.874632,595.2496438
100.1,137.12716,303.918351,596.0554563
101.1,137.10472,303.963841,596.8418638
102.1,137.08175,304.011133,597.6092863
103.1,137.05826,304.060257,598.358165
104.1,137.03425,304.111242,599.0889363
105.1,137.0097,304.164116,599.802055
106.1,136.98462,304.218907,600.4979663
107.1,136.95901,304.275644,601.1771288
108.1,136.93286,304.334351,601.84
109.1,136.90618,304.395054,602.4870338
110.1,136.87897,304.457778,603.1186813
111.1,136.85122,304.522548,603.7353963
112.1,136.82295,304.589386,604.3376288
113.1,136.79415,304.658336,601.3496925
114.1,136.76494,304.729481,601.961045
115.1,136.73526,304.802712,602.5587813
116.1,136.70505,304.878088,603.1412475
117.1,136.67433,304.955632,603.7095175
118.1,136.64308,305.035366,604.2643875
119.1,136.61133,305.117308,604.8065088
120.1,136.57907,305.201477,605.3364388
121.1,136.54631,305.287888,605.8546813
122.1,136.51305,305.376558,606.3616938
123.1,136.4793,305.467502,606.8579013
124.1,136.44506,305.560733,607.3437063
125.1,136.41034,305.656265,607.8194875
126.1,136.37514,305.754111,608.2856113
127.1,136.33947,305.854282,608.7424213
128.1,136.30334,305.956791,609.1902513
129.1,136.26675,306.061647,609.6294138
130.1,136.2297,306.16886,610.0602188
131.1,136.1922,306.278439,610.4829575
132.1,136.15426,306.390393,610.8979075
133.1,136.11589,306.504729,611.30534
134.1,136.07708,306.621454,611.7055163
135.1,136.03785,306.740575,612.0986813
136.1,135.99819,306.862098,612.4850725
137.1,135.95813,306.986027,612.8649238
138.1,135.91765,307.112367,613.23845
139.1,135.87678,307.241122,613.605865
140.1,135.8355,307.372294,613.967365
141.1,135.79384,307.505887,614.32315
142.1,135.75178,307.641903,614.6734
143.1,135.70935,307.780343,615.0182975
144.1,135.66654,307.921207,615.3580088
145.1,135.62337,308.064497,615.6927
146.1,135.57982,308.210211,616.0225288
147.1,135.53592,308.358349,616.3476413
148.1,135.49166,308.508909,616.668185
149.1,135.44706,308.66189,616.9842988
150.1,135.4021,308.81729,617.29611
151.1,135.35681,308.975104,617.6037513
152.1,135.31118,309.13533,617.9073388
153.1,135.26522,309.297964,614.2471567
154.1,135.21894,309.463001,614.5630089
155.1,135.17245,309.630438,614.193975
156.1,135.12584,309.800267,614.526405
157.1,135.0789,309.972484,614.8529925
158.1,135.03162,310.147082,615.1738663
159.1,134.98401,310.324055,615.4893175
160.1,134.93606,310.503394,615.7996775
161.1,134.88779,310.685094,616.1052813
162.1,134.8392,310.869145,616.4064238
163.1,134.7903,311.05554,616.7033763
164.1,134.74109,311.244271,616.99636
165.1,134.69158,311.435327,617.2855875
166.1,134.64178,311.6287,617.5712325
167.1,134.59169,311.82438,617.8534538
168.1,134.54131,312.022357,618.132395
169.1,134.49066,312.22262,618.4081788
170.1,134.43973,312.425159,618.6809188
171.1,134.38852,312.629963,618.9507238
172.1,134.33705,312.83702,619.217685
173.1,134.28532,313.04632,619.481895
174.1,134.23332,313.257848,619.7434338
175.1,134.18107,313.471595,620.0023738
176.1,134.12857,313.687547,620.2587913
177.1,134.07582,313.905691,620.51275
178.1,134.02282,314.126015,620.7643113
179.1,133.96958,314.348506,621.0135413
180.1,133.9161,314.57315,621.260485
181.1,133.86238,314.799933,621.5052013
182.1,133.80843,315.028842,621.74774
183.1,133.75425,315.259862,618.3179289
184.1,133.69984,315.492981,618.5734133
185.1,133.64521,315.728182,618.8267967
186.1,133.59043,315.965453,618.2473325
187.1,133.53567,316.204777,618.5172325
188.1,133.4807,316.44614,618.7851125
189.1,133.42549,316.689528,619.0497838
190.1,133.37004,316.934924,619.3109738
191.1,133.31433,317.182314,619.5687313
192.1,133.25839,317.431682,619.8232113
193.1,133.20222,317.683012,620.0746113
194.1,133.14582,317.93629,620.323125
195.1,133.08919,318.1915,620.5689375
196.1,133.03235,318.448625,620.8122025
197.1,132.97529,318.70765,621.0530638
198.1,132.91802,318.968558,621.2916375
199.1,132.86054,319.231335,621.528035
200.1,132.80286,319.495963,621.762345
201.1,132.74499,319.762426,621.9946488
202.1,132.68691,320.030709,622.2250225
203.1,132.62864,320.300795,622.4535263
204.1,132.57018,320.572668,622.680215
205.1,132.51153,320.846312,622.905145
206.1,132.4527,321.121709,623.1283613
207.1,132.39368,321.398844,623.3499063
208.1,132.33448,321.6777,623.5698188
209.1,132.27511,321.958262,623.788135
210.1,132.21556,322.240512,620.5097867
211.1,132.15583,322.524433,620.7405522
212.1,132.09593,322.810011,620.9697889
213.1,132.03587,323.097228,620.3644075
214.1,131.97582,323.386069,620.6031238
215.1,131.91575,323.676516,620.8470488
216.1,131.8555,323.968552,621.0892113
217.1,131.79505,324.262163,621.3287725
218.1,131.73441,324.557331,621.5655075
219.1,131.67357,324.85404,621.7994525
220.1,131.61254,325.152273,622.0307388
221.1,131.55132,325.452016,622.2595425
222.1,131.48992,325.753251,622.4860263
223.1,131.42835,326.055963,622.71034
224.1,131.3666,326.360135,622.9326175
225.1,131.30468,326.665752,623.15298
226.1,131.2426,326.972797,623.3715213
227.1,131.18035,327.281255,623.5883388
228.1,131.11795,327.591109,623.8034975
229.1,131.05539,327.902345,624.0170713
230.1,130.99267,328.214946,624.2291088
231.1,130.9298,328.528897,624.439665
232.1,130.86678,328.844182,624.6487825
233.1,130.80362,329.160786,624.8565013
234.1,130.7403,329.478694,625.0628525
235.1,130.67685,329.797889,625.26787
236.1,130.61325,330.118358,622.1094356
237.1,130.54951,330.440084,622.3263867
238.1,130.48563,330.763053,622.5420733
239.1,130.42166,331.08725,621.9471675
240.1,130.35779,331.41266,622.177105
241.1,130.29384,331.739268,622.40728
242.1,130.22973,332.06706,622.6355938
243.1,130.16545,332.39602,622.8614913
244.1,130.10099,332.726134,623.08485
245.1,130.03638,333.057389,623.3057425
246.1,129.9716,333.389769,623.5243038
247.1,129.90666,333.72326,623.7406938
248.1,129.84158,334.057849,623.9550663
249.1,129.77634,334.393521,624.1675538
250.1,129.71097,334.730262,624.3782763
251.1,129.64545,335.068059,624.5873363
252.1,129.57979,335.406898,624.7948238
253.1,129.514,335.746765,625.0008125
254.1,129.44807,336.087647,625.2053688
255.1,129.38202,336.42953,625.4085475
256.1,129.31583,336.772401,625.6103988
257.1,129.24952,337.116248,625.8109588
258.1,129.18309,337.461056,626.0102713
259.1,129.11653,337.806813,626.20836
260.1,129.04985,338.153506,623.1341644
261.1,128.98305,338.501122,623.3437256
262.1,128.91613,338.849649,623.5521489
263.1,128.8491,339.199075,622.96836
264.1,128.78217,339.549387,623.1876025
265.1,128.71524,339.900573,623.4101088
266.1,128.64818,340.252619,623.63126
267.1,128.58096,340.605515,623.8502688
268.1,128.5136,340.959247,624.0669163
269.1,128.44608,341.313804,624.2812238
270.1,128.37843,341.669175,624.4933113
271.1,128.31063,342.025348,624.7033263
272.1,128.2427,342.38231,624.9114213
273.1,128.17463,342.740052,625.1177325
274.1,128.10644,343.09856,625.3223713
275.1,128.03813,343.457825,625.5254475
276.1,127.96969,343.817834,625.7270463
277.1,127.90113,344.178578,625.9272388
278.1,127.83246,344.540044,626.1261
279.1,127.76367,344.902223,626.3236725
280.1,127.69477,345.265103,626.52001
281.1,127.62576,345.628674,626.7151513
282.1,127.55664,345.992925,626.9091275
283.1,127.48741,346.357846,627.1019713
284.1,127.41808,346.723426,624.1070844
285.1,127.34864,347.089656,624.3110822
286.1,127.2791,347.456525,624.5140333
287.1,127.20958,347.824025,623.9607163
288.1,127.14017,348.192144,624.1782625
289.1,127.07064,348.560872,624.394965
290.1,127.00098,348.9302,624.609745
291.1,126.93118,349.300118,624.8222713
292.1,126.86124,349.670617,625.0325263
293.1,126.79117,350.041688,625.2406163
294.1,126.72097,350.41332,625.4466775
295.1,126.65065,350.785506,625.6508675
296.1,126.5802,351.158235,625.8533175
297.1,126.50964,351.531499,626.0541513
298.1,126.43897,351.905289,626.2534688
299.1,126.36818,352.279596,626.4513638
300.1,126.29729,352.654411,626.6479113
301.1,126.22629,353.029726,626.843175
302,126.15874,353.386726,627.0178588
303,126.0911,353.744169,627.2108275
304,126.0198,354.120885,627.4026488
305,125.9484,354.498067,627.593355
306,125.87691,354.875708,624.6503167
307,125.80532,355.2538,624.8518389
308,125.73363,355.632334,625.0523533
309,125.66187,356.011303,624.51784
310,125.59024,356.390699,624.7301875
311,125.51861,356.770514,624.944345
312,125.44686,357.15074,625.157065
313,125.37498,357.531369,625.3676938
314,125.30296,357.912395,625.5760888
315,125.23082,358.293809,625.7822988
316,125.15856,358.675604,625.9864538
317,125.08618,359.057774,626.18871
318,125.01368,359.44031,626.3892025
319,124.94107,359.823206,626.5880638
320,124.86836,360.206454,626.7854113
321,124.79554,360.590048,626.9813363
322,124.72261,360.973981,627.1759213
323,124.64959,361.358246,627.3692338
324,124.57647,361.742836,627.5613338
325,124.50325,362.127745,627.7522713
326,124.42994,362.512965,627.9420875
327,124.35653,362.898492,628.1308175
328,124.28304,363.284317,625.2409022
329,124.20945,363.670434,625.4402144
330,124.13577,364.056838,625.6385489
331,124.06204,364.443523,625.1207
332,123.98846,364.830483,625.3314975
333,123.91485,365.21771,625.543235
334,123.84113,365.605198,625.7534388
335,123.76728,365.992943,625.9615588
336,123.69331,366.380936,626.16748
337,123.61921,366.769174,626.371275
338,123.54499,367.15765,626.5730738
339,123.47067,367.546358,626.7730325
340,123.39623,367.935293,626.9712863
341,123.32169,368.324449,627.1679688
342,123.24704,368.713821,627.3631813
343,123.1723,369.103402,627.5570238
344,123.09746,369.493189,627.7495675
345,123.02252,369.883175,627.9408838
346,122.94749,370.273354,628.1310263
347,122.87237,370.663723,628.32004
348,122.79716,371.054275,628.507965
349,122.72186,371.445006,628.6948388
350,122.64647,371.83591,625.8583344
351,122.571,372.226983,626.0556422
352,122.49544,372.618219,625.5673925
353,122.42,373.009616,625.7725988
354,122.34461,373.40117,625.9831113
355,122.26911,373.79286,626.1923488
356,122.1935,374.18471,626.3995675
357,122.11775,374.57669,626.6045913
358,122.04189,374.9688,626.8074725
359,121.96591,375.36105,627.0083363
360,121.88982,375.75342,627.2073425
361,121.81362,376.14591,627.4046375
362,121.73732,376.53852,627.600345
363,121.66092,376.93124,627.7945888
364,121.58442,377.32407,627.9874575
365,121.50782,377.717,628.179035
366,121.43113,378.11003,628.3693913
367,121.35435,378.50315,628.5585825
368,121.27749,378.89637,628.7466525
369,121.20053,379.28967,628.9336488
370,121.12349,379.68305,629.1196013
371,121.04636,380.07651,626.3267289
372,120.96915,380.47005,626.5229589
373,120.89187,380.86365,626.05805
374,120.81475,381.25732,626.2658275
375,120.73763,381.65106,626.4751525
376,120.66039,382.04485,626.6829138
377,120.58303,382.4387,626.8885775
378,120.50555,382.83259,627.0920438
379,120.42796,383.22653,627.2933988
380,120.35024,383.62052,627.4927925
381,120.27242,384.01454,627.6903725
382,120.19449,384.40859,627.8862925
383,120.11647,384.80268,628.0806775
384,120.03834,385.1968,628.2736363
385,119.96012,385.59094,628.4652588
386,119.8818,385.9851,628.655625
387,119.8034,386.37928,628.8448025
388,119.7249,386.77347,629.0328388
389,119.64632,387.16767,629.2197838
390,119.56765,387.56187,629.405675
391,119.48889,387.95608,626.64719
392,119.41005,388.35029,626.8431689
393,119.33113,388.7445,627.0382144
394,119.25227,389.13869,626.5956188
395,119.17352,389.53288,626.8043463
396,119.09467,389.92705,627.0119938
397,119.0157,390.32121,627.21767
398,118.93661,390.71534,627.4211613
399,118.8574,391.10945,627.6225075
400,118.77807,391.50353,627.8218475
401,118.69863,391.89758,628.0193313
402,118.61909,392.2916,628.2151188
403,118.53944,392.68558,628.40934
404,118.45969,393.07952,628.6021125
405,118.37985,393.47341,628.7935313
406,118.29992,393.86726,628.9836813
407,118.21989,394.26106,629.1726288
408,118.13977,394.65481,629.3604325
409,118.05956,395.0485,629.5471375
410,117.97927,395.44213,629.732785
411,117.89889,395.8357,627.0105867
412,117.81843,396.22921,627.20618
413,117.73788,396.62265,627.4008456
414,117.65739,397.01601,626.9790263
415,117.57702,397.40931,627.1872363
416,117.49654,397.80252,627.3943013
417,117.41595,398.19566,627.5993638
418,117.33523,398.58871,627.8022288
419,117.25438,398.98167,628.0029525
420,117.17342,399.37455,628.201675
421,117.09235,399.76734,628.3985613
422,117.01118,400.16002,628.5937575
423,116.92989,400.55262,628.787405
424,116.84851,400.94511,628.9796138
425,116.76704,401.33749,629.1704863
426,116.68547,401.72977,629.3600988
427,116.6038,402.12194,629.5485213
428,116.52205,402.514,629.7358088
429,116.4402,402.90594,629.92201
430,116.35827,403.29777,630.10716
431,116.27625,403.68947,627.4234556
432,116.19415,404.08105,627.6184544
433,116.11199,404.47251,627.2309988
434,116.03,404.86385,627.4383413
435,115.94798,405.25505,627.6459975
436,115.86584,405.64611,627.8517963
437,115.78358,406.03703,628.0553688
438,115.70118,406.42781,628.2567163
439,115.61867,406.81845,628.4559713
440,115.53604,407.20894,628.6533025
441,115.4533,407.59928,628.8488788
442,115.37046,407.98946,629.0428413
443,115.28751,408.37949,629.2353213
444,115.20446,408.76937,629.426425
445,115.12132,409.15908,629.6162413
446,115.03808,409.54863,629.8048425
447,114.95475,409.93801,629.9922913
448,114.87132,410.32722,630.1786363
449,114.78781,410.71626,630.3639213
450,114.70421,411.10512,627.71111
451,114.62052,411.4938,627.9060978
452,114.53675,411.88231,627.530725
453,114.45312,412.27063,627.7358663
454,114.36951,412.65877,627.94339
455,114.28578,413.04672,628.1491938
456,114.20193,413.43447,628.3527988
457,114.11794,413.82203,628.5541675
458,114.03383,414.20938,628.7534175
459,113.9496,414.59654,628.9507213
460,113.86526,414.98349,629.1462475
461,113.78081,415.37023,629.3401425
462,113.69626,415.75677,629.532545
463,113.6116,416.14309,629.7235613
464,113.52684,416.52919,629.91328
465,113.44199,416.91507,630.1017838
466,113.35704,417.30074,630.2891263
467,113.27199,417.68617,630.4753663
468,113.18686,418.07138,630.66054
469,113.10163,418.45636,628.0406544
470,113.01632,418.8411,628.2354189
471,112.93094,419.22561,627.8917325
472,112.84573,419.6099,628.09877
473,112.76048,419.99393,628.3059
474,112.67511,420.37771,628.51105
475,112.5896,420.76124,628.7139163
476,112.50396,421.14452,628.914535
477,112.4182,421.52755,629.11306
478,112.33231,421.91031,629.30967
479,112.24632,422.29281,629.5045363
480,112.16021,422.67505,629.6978113
481,112.07399,423.05702,629.8896163
482,111.98767,423.43872,630.080065
483,111.90125,423.82014,630.2692413
484,111.81472,424.20128,630.4572163
485,111.72811,424.58215,630.6440525
486,111.64139,424.96273,630.829795
487,111.55458,425.34302,631.01449
488,111.46768,425.72302,628.4302967
489,111.38068,426.10273,628.62451
490,111.29374,426.48216,628.3045525
491,111.2069,426.86128,628.5120488
492,111.11995,427.24009,628.7179888
493,111.03286,427.6186,628.9217025
494,110.94564,427.9968,629.1231163
495,110.85828,428.37468,629.3223475
496,110.7708,428.75225,629.5195775
497,110.6832,429.12949,629.7149888
498,110.59548,429.50641,629.90874
499,110.50765,429.88301,630.1009713
500,110.41972,430.25927,630.2918025
501,110.33167,430.6352,630.4813288
502,110.24353,431.01079,630.669625
503,110.15528,431.38604,630.8567575
504,110.06694,431.76095,631.0427813
505,109.97849,432.13551,631.2277413
506,109.88995,432.50972,628.6709556
507,109.80131,432.88357,628.8652844
508,109.7127,433.2571,628.579025
509,109.62421,433.63026,628.7866313
510,109.53561,434.00305,628.9926725
511,109.44687,434.37547,629.1964263
512,109.35799,434.74751,629.3978175
513,109.26898,435.11918,629.5969925
514,109.17983,435.49047,629.7941338
515,109.09056,435.86137,629.9894375
516,109.00118,436.23189,630.18307
517,108.91168,436.60202,630.3751713
518,108.82206,436.97175,630.5658675
519,108.73234,437.34109,630.7552538
520,108.64251,437.71002,630.94341
521,108.55258,438.07856,631.1304025
522,108.46254,438.44668,631.316285
523,108.37241,438.81439,631.5010988
524,108.28217,439.18169,628.9746589
525,108.19184,439.54857,628.7077788
526,108.10159,439.91508,628.906545
527,108.0114,440.28114,629.1138338
528,107.92109,440.64677,629.3192088
