Time,ResidualMass,Avg_Back_Wall_Temp,Avg_Front_Wall_Temp_1mm
[s],[g],[K],[K]
0,70.109434,293.15,293.15
1,70.109433,293.149998,293.149998
2,70.109433,293.149997,298.5185803
3,70.109432,293.149995,301.855744
4,70.109431,293.149993,304.8607353
5,70.10943,293.149991,307.6587347
6,70.109429,293.149989,310.3168813
7,70.109428,293.149987,312.7776403
8,70.109427,293.149985,315.165517
9,70.109426,293.149984,317.394752
10,70.109424,293.149982,319.5705673
11,70.109422,293.14998,321.6152853
12,70.10942,293.149979,323.619701
13,70.109418,293.149979,325.5135533
14,70.109416,293.149982,327.3762313
15,70.109413,293.149991,329.1440713
16,70.10941,293.150014,330.8872573
17,70.109406,293.150061,332.5479357
18,70.109402,293.15015,334.1887347
19,70.109398,293.150305,335.756898
20,70.109393,293.150561,337.308758
21,70.109388,293.150964,338.7960293
22,70.109382,293.151571,340.269731
23,70.109376,293.152452,341.6855047
24,70.109369,293.153688,343.0898357
25,70.109362,293.155376,344.441828
26,70.109354,293.15762,345.784059
27,70.109345,293.160539,347.0786957
28,70.109336,293.164259,348.3649197
29,70.109325,293.168915,349.6076177
30,70.109314,293.174649,350.8429993
31,70.109302,293.181607,352.0383783
32,70.10929,293.18994,353.227336
33,70.109276,293.199802,354.3793667
34,70.109261,293.211347,355.5257223
35,70.109246,293.224729,356.6378503
36,70.109229,293.240101,357.744929
37,70.109211,293.257612,358.8201667
38,70.109192,293.277412,359.890883
39,70.109172,293.299641,360.9318897
40,70.109151,293.32444,361.9688137
41,70.109128,293.351942,362.9779377
42,70.109104,293.382273,363.9833593
43,70.109079,293.415556,364.9626897
44,70.109052,293.451906,365.9386517
45,70.109024,293.491431,366.8900667
46,70.108994,293.534233,367.8383947
47,70.108962,293.580408,368.7635793
48,70.108929,293.630045,369.6859253
49,70.108894,293.683225,370.5864073
50,70.108858,293.740023,371.4842627
51,70.108819,293.800509,372.3614237
52,70.108779,293.864744,373.2361463
53,70.108737,293.932785,374.0912443
54,70.108693,294.004683,374.9440713
55,70.108647,294.080481,375.7782587
56,70.108598,294.160219,376.6103253
57,70.108548,294.243929,377.4246543
58,70.108495,294.33164,378.236996
59,70.10844,294.423375,379.0324393
60,70.108383,294.519153,379.8260137
61,70.108323,294.618987,380.6034673
62,70.108261,294.722888,381.379159
63,70.108196,294.83086,382.1394497
64,70.108129,294.942906,382.898075
65,70.108059,295.059023,383.6419697
66,70.107986,295.179207,384.384289
67,70.10791,295.303448,385.1125047
68,70.107832,295.431736,385.839219
69,70.107751,295.564055,386.552421
70,70.107666,295.70039,387.2641907
71,70.107579,295.840719,387.9630003
72,70.107488,295.985022,388.6604413
73,70.107395,296.133274,389.345437
74,70.107298,296.285449,390.0291267
75,70.107198,296.441519,390.7008543
76,70.107094,296.601455,391.371334
77,70.106987,296.765225,392.030308
78,70.106876,296.932796,392.6880847
79,70.106762,297.104135,393.3347847
80,70.106644,297.279206,393.9803383
81,70.106522,297.457973,394.6152207
82,70.106397,297.640399,395.2489967
83,70.106268,297.826444,395.87249
84,70.106134,298.016071,396.4949233
85,70.105997,298.209238,397.1074333
86,70.105856,298.405906,397.7189267
87,70.10571,298.606033,398.32084
88,70.10556,298.809578,398.9217733
89,70.105406,299.016498,399.5134533
90,70.105248,299.226751,400.1041933
91,70.105085,299.440295,400.68599
92,70.104918,299.657086,401.26688
93,70.104746,299.87708,401.83912
94,70.104569,300.100235,402.41049
95,70.104388,300.326507,402.97349
96,70.104201,300.555852,403.5356467
97,70.10401,300.788227,404.0897167
98,70.103814,301.023589,404.6429633
99,70.103613,301.261892,405.1883767
100,70.103407,301.503095,405.7330033
101,70.103196,301.747154,406.2700367
102,70.102979,301.994025,406.8063167
103,70.102757,302.243666,407.33523
104,70.10253,302.496033,407.8634167
105,70.102298,302.751084,408.38447
106,70.102059,303.008777,408.9048167
107,70.101816,303.26907,409.4182467
108,70.101566,303.53192,409.93099
109,70.101311,303.797286,410.4370267
110,70.10105,304.065126,410.9424033
111,70.100783,304.335401,411.4412633
112,70.10051,304.608069,411.9394967
113,70.100231,304.883089,412.4313967
114,70.099946,305.160423,412.92269
115,70.099655,305.44003,413.4078367
116,70.099358,305.721872,413.8923933
117,70.099054,306.005908,414.3709833
118,70.098744,306.292102,414.8490067
119,70.098427,306.580415,415.3212267
120,70.098104,306.87081,415.7929033
121,70.097774,307.163249,416.2589333
122,70.097438,307.457695,416.7244433
123,70.097095,307.754112,417.1844667
124,70.096745,308.052464,417.6439867
125,70.096389,308.352716,418.09817
126,70.096025,308.654832,418.5518633
127,70.095654,308.958778,419.00037
128,70.095276,309.264519,419.4484033
129,70.094892,309.572022,419.8913867
130,70.094499,309.881252,420.3339167
131,70.0941,310.192178,420.7715333
132,70.093693,310.504765,421.2087133
133,70.093279,310.818983,421.64111
134,70.092858,311.134799,422.0730833
135,70.092429,311.452182,422.5004
136,70.091992,311.7711,422.92731
137,70.091547,312.091524,423.3496833
138,70.091095,312.413423,423.77167
139,70.090635,312.736768,424.1892333
140,70.090167,313.061528,424.6064233
141,70.089692,313.387676,425.0192967
142,70.089208,313.715183,425.43182
143,70.088716,314.044019,425.84014
144,70.088216,314.374159,426.2481167
145,70.087708,314.705573,426.6519933
146,70.087192,315.038236,427.05555
147,70.086667,315.372121,427.4551033
148,70.086134,315.707201,427.8543467
149,70.085592,316.04345,428.24969
150,70.085042,316.380844,428.64473
151,70.084484,316.719357,429.03597
152,70.083917,317.058964,429.42692
153,70.083341,317.399641,429.81416
154,70.082756,317.741363,430.2011233
155,70.082163,318.084108,430.5844667
156,70.081561,318.427851,430.9675467
157,70.08095,318.772571,431.3470867
158,70.08033,319.118243,431.7263767
159,70.079701,319.464846,432.10221
160,70.079063,319.812358,432.47781
161,70.078416,320.160757,432.8500333
162,70.077759,320.510022,433.2220233
163,70.077094,320.860131,433.59073
164,70.076419,321.211065,433.95921
165,70.075735,321.562802,434.3244733
166,70.075041,321.915323,434.6895233
167,70.074338,322.268607,435.05143
168,70.073626,322.622636,435.4131433
169,70.072904,322.97739,435.7717767
170,70.072172,323.33285,436.1302233
171,70.071431,323.688998,436.4856633
172,70.07068,324.045815,436.8409267
173,70.069919,324.403283,437.1932433
174,70.069149,324.761385,437.5453967
175,70.068369,325.120103,437.8946767
176,70.067579,325.479419,438.2437867
177,70.066779,325.839317,438.5900933
178,70.065969,326.19978,438.9362367
179,70.065149,326.560792,439.27964
180,70.064319,326.922337,439.62289
181,70.063478,327.284397,439.9634533
182,70.062628,327.646959,440.3038767
183,70.061768,328.010006,440.6416667
184,70.060897,328.373523,440.9793267
185,70.060016,328.737495,441.3144067
186,70.059125,329.101908,441.64936
187,70.058223,329.466747,441.9817933
188,70.057312,329.831997,442.3141067
189,70.056389,330.197645,442.64395
190,70.055457,330.563677,442.9736833
191,70.054513,330.930079,443.3009933
192,70.05356,331.296838,443.6282
193,70.052595,331.66394,443.9530367
194,70.05162,332.031373,444.2777733
195,70.050635,332.399123,444.6001933
196,70.049639,332.767179,444.92251
197,70.048632,333.135528,445.2425567
198,70.047614,333.504157,445.5625133
199,70.046586,333.873055,445.8802433
200,70.045547,334.24221,446.1978833
201,70.044497,334.61161,446.5133467
202,70.043436,334.981266,446.7356433
203,70.042364,335.351122,447.03088
204,70.041281,335.7212,447.3547167
205,70.040188,336.091468,447.65638
206,70.039083,336.461934,447.9744633
207,70.037968,336.832571,448.27668
208,70.036841,337.203383,448.59101
209,70.035703,337.574347,448.89251
210,70.034555,337.945466,449.2038667
211,70.033395,338.316718,449.5041633
212,70.032225,338.688103,449.8129067
213,70.031043,339.059603,450.11178
214,70.02985,339.431217,450.4181067
215,70.028646,339.802928,450.7154533
216,70.027431,340.174734,451.0195
217,70.026204,340.546618,451.3152667
218,70.024967,340.91858,451.6171333
219,70.023718,341.290603,451.9112933
220,70.022458,341.662687,452.2110567
221,70.021187,342.034815,452.50361
222,70.019905,342.406985,452.80134
223,70.018611,342.779185,453.0922733
224,70.017306,343.151411,453.3880367
225,70.01599,343.52365,453.6773633
226,70.014662,343.8959,453.97121
227,70.013323,344.268148,454.25895
228,70.011973,344.640391,454.5509233
229,70.010612,345.012617,454.8370833
230,70.009239,345.384825,455.12724
231,70.007855,345.757001,455.4118367
232,70.006459,346.129143,455.7002167
233,70.005052,346.50124,455.9832667
234,70.003634,346.873291,456.2699067
235,70.002205,347.245282,456.5514333
236,70.000764,347.617213,456.83638
237,69.999311,347.989072,457.1164
238,69.997848,348.360858,457.3996867
239,69.996372,348.732559,457.67822
240,69.994886,349.104174,457.9598733
241,69.993388,349.475693,458.2369467
242,69.991879,349.847113,458.5170067
243,69.990358,350.218425,458.7926367
244,69.988826,350.589627,459.0711267
245,69.987283,350.960709,459.3453367
246,69.985728,351.33167,459.6222967
247,69.984162,351.7025,459.8951033
248,69.982584,352.073197,460.17056
249,69.980996,352.443753,460.4419833
250,69.979395,352.814165,460.71596
251,69.977784,353.184425,460.9860267
252,69.976161,353.554532,461.2585533
253,69.974527,353.924477,461.5272767
254,69.972881,354.294258,461.7983767
255,69.971224,354.663868,462.06578
256,69.969556,355.033304,462.3354833
257,69.967876,355.40256,462.6015833
258,69.966185,355.771632,462.8699033
259,69.964483,356.140515,463.1347267
260,69.962769,356.509206,463.4016967
261,69.961045,356.877697,463.66525
262,69.959309,357.245989,463.9308867
263,69.957561,357.614073,464.1931967
264,69.955803,357.981948,464.4575233
265,69.954033,358.349607,464.7186067
266,69.952252,358.71705,464.9816467
267,69.95046,359.084268,465.24152
268,69.948657,359.451262,465.50329
269,69.946842,359.818025,465.7619667
270,69.945017,360.184555,466.02249
271,69.94318,360.550846,466.2799867
272,69.941332,360.916897,466.5392833
273,69.939473,361.282702,466.79562
274,69.937603,361.64826,467.0537033
275,69.935721,362.013565,467.3088967
276,69.933829,362.378617,467.56579
277,69.931926,362.743408,467.81985
278,69.930011,363.107939,468.0755667
279,69.928086,363.472203,468.3285167
280,69.92615,363.836201,468.45773
281,69.924202,364.199926,468.7097333
282,69.922244,364.563378,468.9633033
283,69.920275,364.926551,469.2142233
284,69.918295,365.289445,469.46667
285,69.916304,365.652054,469.7165167
286,69.914302,366.014378,469.96785
287,69.912289,366.376412,470.21664
288,69.910266,366.738157,470.47581
289,69.908231,367.099605,470.70782
290,69.906186,367.460757,470.96613
291,69.904129,367.821607,471.2045933
292,69.902062,368.182157,471.45873
293,69.899985,368.5424,471.6985
294,69.897896,368.902337,471.95017
295,69.895797,369.261963,472.1901233
296,69.893688,369.621277,472.4399767
297,69.891567,369.980276,472.6796633
298,69.889436,370.338958,472.9279933
299,69.887295,370.69732,473.1671933
300,69.885143,371.055361,473.41415
301,69.88298,371.413078,473.6527567
302,69.880807,371.770469,473.8984367
303,69.878623,372.127531,474.13638
304,69.876429,372.484264,474.38084
305,69.874225,372.840663,474.6180733
306,69.87201,373.19673,474.86137
307,69.869784,373.55246,475.0978667
308,69.867548,373.90785,475.3400333
309,69.865302,374.2629,475.57578
310,69.863046,374.61761,475.81685
311,69.860779,374.97197,476.0518233
312,69.858502,375.32599,476.29183
313,69.856214,375.67966,476.52602
314,69.853917,376.03298,476.7649867
315,69.851609,376.38595,476.9983967
316,69.849291,376.73857,477.23634
317,69.846963,377.09083,477.46896
318,69.844624,377.44274,477.7059067
319,69.842276,377.79429,477.9377367
320,69.839917,378.14548,478.1737
321,69.837548,378.49631,478.4047333
322,69.835169,378.84678,478.6397333
323,69.83278,379.19688,478.86998
324,69.830382,379.54662,479.1040267
325,69.827973,379.89599,479.3334833
326,69.825554,380.24499,479.5665967
327,69.823125,380.59362,479.7952667
328,69.820686,380.94189,480.0274567
329,69.818237,381.28978,480.2553433
330,69.815778,381.63729,480.4866233
331,69.81331,381.98443,480.7137233
332,69.810831,382.33119,480.94411
333,69.808343,382.67758,481.1704333
334,69.805845,383.02359,481.3999267
335,69.803337,383.36921,481.62548
336,69.800819,383.71446,481.8540967
337,69.798291,384.05932,482.07888
338,69.795754,384.4038,482.3066333
339,69.793207,384.74789,482.5306467
340,69.79065,385.0916,482.75754
341,69.788083,385.43492,482.9807933
342,69.785507,385.77785,483.20684
343,69.782921,386.12039,483.4293333
344,69.780326,386.46254,483.6545433
345,69.77772,386.80431,483.79911
346,69.775105,387.14568,484.0166367
347,69.772481,387.48665,484.2417933
348,69.769847,387.82723,484.4618133
349,69.767203,388.16742,484.68485
350,69.764549,388.50721,484.9050767
351,69.761887,388.8466,485.1267467
352,69.759214,389.18559,485.3466867
353,69.756532,389.52419,485.56728
354,69.753841,389.86238,485.7867333
355,69.751139,390.20018,486.0063733
356,69.748429,390.53757,486.2252533
357,69.745709,390.87456,486.4440067
358,69.74298,391.21115,486.6622667
359,69.740241,391.54733,486.8801633
360,69.737492,391.88311,487.0977733
361,69.734734,392.21849,487.31485
362,69.731967,392.55345,487.5317967
363,69.729191,392.88801,487.74807
364,69.726404,393.22217,487.96433
365,69.723609,393.55591,488.17982
366,69.720804,393.88925,488.3953967
367,69.71799,394.22218,488.6101167
368,69.715166,394.55469,488.8249967
369,69.712333,394.8868,489.0389533
370,69.709491,395.21849,489.25314
371,69.706639,395.54977,489.46635
372,69.703778,395.88064,489.6798367
373,69.700908,396.2111,489.8923067
374,69.698028,396.54114,490.1050967
375,69.695139,396.87077,490.3168267
376,69.692241,397.19999,490.5289233
377,69.689333,397.52878,490.7399267
378,69.686416,397.85717,490.9513233
379,69.68349,398.18513,491.16161
380,69.680554,398.51268,491.37231
381,69.677609,398.83981,491.5818833
382,69.674655,399.16653,491.79189
383,69.671692,399.49282,492.0007467
384,69.668719,399.8187,492.2100667
385,69.665737,400.14416,492.4182233
386,69.662745,400.46919,492.62685
387,69.659745,400.79381,492.8343067
388,69.656735,401.11801,493.0422433
389,69.653716,401.44179,493.2490067
390,69.650687,401.76514,493.4562567
391,69.64765,402.08807,493.66233
392,69.644603,402.41059,493.8210133
393,69.641546,402.73268,494.02375
394,69.638481,403.05435,494.2312933
395,69.635406,403.3756,494.43465
396,69.632322,403.69642,494.6409767
397,69.629228,404.01682,494.8440533
398,69.626126,404.33679,495.04946
399,69.623014,404.65634,495.25207
400,69.619893,404.97546,495.45666
401,69.616762,405.29416,495.65872
402,69.613623,405.61243,495.8625533
403,69.610474,405.93028,496.06403
404,69.607316,406.2477,496.26713
405,69.604148,406.5647,496.4680067
406,69.600971,406.88127,496.67039
407,69.597785,407.19741,496.8706567
408,69.59459,407.51313,497.0723333
409,69.591386,407.82842,497.2719767
410,69.588172,408.14328,497.47296
411,69.584949,408.45771,497.6719867
412,69.581716,408.77172,497.87228
413,69.578475,409.0853,498.07068
414,69.575224,409.39845,498.2702933
415,69.571964,409.71117,498.4680633
416,69.568695,410.02347,498.667
417,69.565416,410.33533,498.8641433
418,69.562128,410.64677,499.0624067
419,69.558831,410.95778,499.2589267
420,69.555525,411.26836,499.45652
421,69.552209,411.57851,499.6524133
422,69.548884,411.88823,499.8493433
423,69.54555,412.19752,500.04461
424,69.542207,412.50639,500.24088
425,69.538854,412.81482,500.4355167
426,69.535492,413.12282,500.6311333
427,69.532121,413.4304,500.82515
428,69.528741,413.73754,501.0201067
429,69.525351,414.04426,501.2134967
430,69.521952,414.35055,501.4078067
431,69.518544,414.6564,501.6005767
432,69.515127,414.96183,501.7942367
433,69.5117,415.26684,501.95934
434,69.508264,415.57141,502.1512833
435,69.504819,415.87555,502.3435
436,69.501365,416.17926,502.5353333
437,69.497902,416.48254,502.7267167
438,69.494429,416.78539,502.9180733
439,69.490947,417.08781,503.1087367
440,69.487456,417.3898,503.29954
441,69.483956,417.69136,503.4895333
442,69.480446,417.99249,503.6797533
443,69.476928,418.29319,503.8690933
444,69.4734,418.59346,504.0587133
445,69.469863,418.8933,504.2474167
446,69.466318,419.19272,504.4364333
447,69.462762,419.4917,504.6245067
448,69.459198,419.79025,504.81291
449,69.455625,420.08838,505.0003567
450,69.452043,420.38607,505.1881567
451,69.448451,420.68334,505.3749767
452,69.444851,420.98018,505.5621633
453,69.441241,421.27658,505.74837
454,69.437623,421.57256,505.9349467
455,69.433995,421.86812,506.1205333
456,69.430358,422.16324,506.3064967
457,69.426713,422.45793,506.4914733
458,69.423058,422.7522,506.67683
459,69.419395,423.04604,506.8611933
460,69.415722,423.33945,507.0459433
461,69.412041,423.63244,507.2296967
462,69.408351,423.92499,507.4138367
463,69.404652,424.21712,507.5969867
464,69.400944,424.50883,507.78052
465,69.397227,424.80011,507.9630667
466,69.393502,425.09096,508.1459933
467,69.389768,425.38138,508.32794
468,69.386025,425.67138,508.5102633
469,69.382273,425.96097,508.6767
470,69.378513,426.25012,508.8577833
471,69.374744,426.53885,509.03894
472,69.370966,426.82715,509.21973
473,69.36718,427.11503,509.40016
474,69.363385,427.40248,509.5804533
475,69.359582,427.68951,509.76023
476,69.35577,427.97612,509.9399733
477,69.35195,428.2623,510.1191267
478,69.348121,428.54806,510.2983033
479,69.344284,428.8334,510.4768467
480,69.340438,429.11831,510.6554467
481,69.336585,429.40281,510.8333833
482,69.332723,429.68688,511.0114067
483,69.328852,429.97053,511.18874
484,69.324974,430.25376,511.3661867
485,69.321087,430.53657,511.5429267
486,69.317193,430.81896,511.7197867
487,69.31329,431.10093,511.8959333
488,69.309379,431.38248,512.0722167
489,69.305461,431.66361,512.2477767
490,69.301534,431.94433,512.42348
491,69.2976,432.22462,512.5984433
492,69.293657,432.5045,512.7735667
493,69.289707,432.78397,512.9479533
494,69.28575,433.06301,513.1224933
495,69.281784,433.34165,513.2962933
496,69.277811,433.61986,513.4702567
497,69.273831,433.89767,513.64348
498,69.269843,434.17505,513.8168633
499,69.265848,434.45203,513.9895067
500,69.261845,434.72859,514.1623133
501,69.257835,435.00474,514.33438
502,69.253818,435.28048,514.5066133
503,69.249793,435.55583,514.6698533
504,69.245762,435.83074,514.84097
505,69.241723,436.10526,515.01222
506,69.237678,436.37935,515.18303
507,69.233625,436.65305,515.3535967
508,69.229566,436.92633,515.5239167
509,69.2255,437.19921,515.6938667
510,69.221427,437.47167,515.8636567
511,69.217348,437.74373,516.0330167
512,69.213262,438.01538,516.2022633
513,69.20917,438.28664,516.3710367
514,69.205071,438.55748,516.5397333
515,69.200967,438.82792,516.7079333
516,69.196855,439.09796,516.87608
517,69.192738,439.3676,517.0437
518,69.188615,439.63683,517.2112933
519,69.184486,439.90567,517.3783467
520,69.180351,440.1741,517.5453867
521,69.17621,440.44214,517.7118733
522,69.172063,440.70977,517.87836
523,69.167911,440.97701,518.04428
524,69.163753,441.24385,518.2102133
525,69.15959,441.5103,518.3755733
526,69.155422,441.77635,518.54095
527,69.151248,442.042,518.7057533
528,69.147069,442.30726,518.8705767
529,69.142885,442.57214,519.03482
530,69.138696,442.83661,519.1990967
531,69.134503,443.1007,519.3627833
532,69.130304,443.3644,519.5265067
533,69.126101,443.62771,519.6896433
534,69.121894,443.89062,519.8528133
535,69.117682,444.15318,520.0099967
536,69.113466,444.41533,520.17198
537,69.109245,444.6771,520.3343967
538,69.105021,444.93847,520.4961433
539,69.100792,445.19948,520.6578867
540,69.09656,445.46008,520.8191833
541,69.092323,445.72032,520.9803233
542,69.088084,445.98016,521.1411233
543,69.08384,446.23964,521.30169
544,69.079593,446.49872,521.4619767
