Time,Mass,Back surface temperature,Top surface temperature
[s],[g],[K],[K]
0,72.6,293,293
1,72.6,293.0000192,356.4758464
2,72.6,293.0000821,396.7925053
3.05,72.59999999,293.000319,430.6076626
4.1,72.59999985,293.0011734,459.3957226
5.15,72.59999852,293.0039833,484.7742911
6.2,72.59999095,293.0118379,507.6144859
7.25,72.59996,293.030164,528.4508665
8.25,72.59986247,293.0642799,546.7587085
9.25,72.5996178,293.1224543,563.788436
10.25,72.59903986,293.2126011,579.6971029
11.25,72.59783388,293.342108,594.5982813
12.25,72.59548779,293.5173157,608.5707512
13.25,72.5912548,293.7432439,621.6635282
14.25,72.58404265,294.0235179,633.899323
15.25,72.57242073,294.3604314,645.2780464
16.25,72.55457176,294.7550898,655.7816887
17.25,72.52840519,295.2075888,665.381472
18.25,72.4916511,295.7172018,674.0473693
19.25,72.44212198,296.282557,681.7589343
20.25,72.37791138,296.9017956,688.5152785
21.25,72.29766534,297.5727081,694.3416306
22.25,72.20067231,298.292848,699.2906781
23.25,72.08693407,299.0596242,703.4385702
24.25,71.95703019,299.8703743,706.8771793
25.25,71.81201039,300.7224226,709.7050723
26.25,71.65316896,301.6131243,712.0194058
27.25,71.4819348,302.5398979,713.9100339
28.25,71.29970253,303.5002498,715.4561245
29.25,71.10780333,304.4917902,716.7249142
30.25,70.9074146,305.5122448,717.7719578
31.25,70.69959339,306.5594604,718.6422428
32.3,70.47467478,307.6856202,719.4049961
33.35,70.24277574,308.8368477,720.0450987
34.4,70.00596861,310.0110907,720.587947
35.45,69.76355526,311.2064421,721.0532079
36.5,69.51738806,312.4211334,721.4561098
37.55,69.2665859,313.6535292,721.8084699
38.6,69.01285034,314.9021195,722.1194941
39.65,68.75517646,316.165513,722.396393
40.7,68.49516423,317.4424296,722.6448515
41.75,68.23172525,318.7316938,722.869385
42.8,67.96639064,320.0322273,723.0736094
43.85,67.69801496,321.3430424,723.2604448
44.9,67.42808172,322.6632364,723.4322711
45.95,67.15540554,323.9919848,723.5910447
47,66.88143618,325.3285361,723.7383885
48.05,66.60495951,326.6722066,723.8756607
49.1,66.32740068,328.0223753,724.0040072
50.15,66.04752429,329.3784795,724.1244029
51.2,65.766737,330.7400102,724.2376834
52.25,65.48378728,332.1065084,724.34457
53.3,65.20006761,333.4775613,724.4456895
54.35,64.91431388,334.8527991,724.5415899
55.4,64.62790742,336.2318914,724.6327528
56.45,64.33957418,337.6145444,724.7196039
57.5,64.05068655,339.0004984,724.8025211
58.55,63.75996244,340.3895251,724.8818414
59.6,63.46876701,341.7814253,724.9578662
60.65,63.17581158,343.1760265,725.0308664
61.7,62.88245534,344.5731815,725.1010859
62.75,62.58740419,345.972766,725.1687453
63.8,62.29201232,347.3746771,725.2340443
64.85,61.99498109,348.7788319,725.2971644
65.9,61.69766051,350.1851659,725.3582709
66.95,61.39874811,351.5936315,725.4175144
68,61.09959036,353.0041974,725.4750328
69.05,60.79888153,354.4168468,725.5309523
70.1,60.49796507,355.8315765,725.5853886
71.15,60.19553244,357.2483966,725.638448
72.2,59.89292453,358.6673288,725.6902286
73.25,59.58883039,360.088406,725.7408205
74.3,59.28458866,361.5116716,725.790307
75.35,58.97888631,362.9371788,725.8387651
76.4,58.67306005,364.3649899,725.8862661
77.45,58.36579503,365.795176,725.932876
78.5,58.05842625,367.2278161,725.978656
79.55,57.74963729,368.662997,726.0236632
80.6,57.44076167,370.1008128,726.0679504
81.65,57.13048154,371.5413643,726.1115671
82.7,56.8201291,372.9847592,726.1545592
83.75,56.50838529,374.4311112,726.1969697
84.8,56.19658113,375.88054,726.2388388
85.85,55.88339643,377.3331711,726.2802042
86.9,55.57016119,378.7891356,726.3211012
87.95,55.25555421,380.2485698,726.3615628
89,54.94090455,381.7116154,726.4016202
90.05,54.62489012,383.1784191,726.4413028
91.1,54.30883911,384.6491324,726.4806382
92.15,53.99142861,386.1239118,726.5196525
93.2,53.67398603,387.6029186,726.5583705
94.25,53.35518771,389.0863188,726.5968156
95.3,53.03636033,390.5742829,726.6350099
96.35,52.71617953,392.0669864,726.6729746
97.4,52.39597133,393.5646091,726.7107298
98.45,52.0744107,395.0673358,726.7482947
99.5,51.75282302,396.5753558,726.7856877
100.55,51.42988267,398.0888631,726.8229264
101.6,51.10691441,399.6080565,726.8600276
102.65,50.78259202,401.1331399,726.8970075
103.7,50.45823969,402.6643217,726.9338818
104.75,50.13253064,404.2018157,726.9706656
105.8,49.80678849,405.7458406,727.0073734
106.85,49.47968591,407.2966204,727.0440196
107.9,49.15254596,408.8543846,727.0806179
108.95,48.82404077,410.4193681,727.1171816
110,48.49549287,411.9918114,727.153724
111.05,48.16557382,413.571961,727.1902579
112.1,47.83560562,415.1600695,727.2267959
113.15,47.50425929,416.7563956,727.2633504
114.2,47.17285626,418.3612044,727.2999336
115.25,46.84006701,419.9747679,727.3365577
116.3,46.50721241,421.5973647,727.3732345
117.35,46.17296237,423.2292809,727.4099759
118.4,45.83863719,424.8708099,727.4467938
119.45,45.50290618,426.5222528,727.4836998
120.5,45.16708905,428.1839187,727.5207059
121.55,44.82985451,429.8561252,727.5578237
122.6,44.49252164,431.5391986,727.5950651
123.65,44.1537585,433.2334741,727.6324418
124.7,43.81488352,434.9392964,727.669966
125.75,43.47456411,436.6570202,727.7076495
126.8,43.13411798,438.3870103,727.7455046
127.85,42.79221182,440.1296423,727.7835437
128.85,42.46644728,441.8013987,727.8199538
129.85,42.13935663,443.4853162,727.8565531
130.85,41.81210752,445.1817488,727.8933527
131.85,41.48351622,446.8910609,727.930364
132.85,41.15474968,448.6136277,727.9675985
133.85,40.82462343,450.3498359,728.005068
134.85,40.49430368,452.100084,728.0427846
135.85,40.16260518,453.8647829,728.0807607
136.85,39.83069333,455.6443566,728.1190089
137.85,39.49738203,457.4392423,728.1575422
138.85,39.16383578,459.2498918,728.196374
139.85,38.82886756,461.0767713,728.2355178
140.85,38.49364092,462.9203627,728.2749878
141.85,38.15696782,464.781164,728.3147985
142.85,37.82001075,466.6596903,728.3549649
143.85,37.48158055,468.5564742,728.3955023
144.85,37.14283856,470.472067,728.4364268
145.85,36.8025944,472.4070395,728.4777548
146.85,36.46200811,474.3619828,728.5195033
147.85,36.11988794,476.3375094,728.56169
148.85,35.77739252,478.3342543,728.6043332
149.85,35.4333286,480.3528757,728.6474519
150.85,35.0888532,482.3940566,728.6910658
151.85,34.74277138,484.4585058,728.7351954
152.85,34.39623839,486.5469592,728.7798619
153.85,34.04805741,488.6601811,728.8250877
154.85,33.69938166,490.7989655,728.8708957
155.85,33.3490122,492.9641377,728.9173101
156.85,32.99809999,495.156556,728.9643559
157.85,32.64544368,497.3771131,729.0120595
158.85,32.29219166,499.6267376,729.0604482
159.85,31.93713982,501.9063964,729.1095507
160.85,31.58143364,504.2170959,729.1593971
161.85,31.22386588,506.5598846,729.2100187
162.85,30.86557863,508.9358544,729.2614487
163.85,30.50536106,511.3461436,729.3137215
164.85,30.1443514,513.7919381,729.3668736
165.85,29.78133464,516.2744747,729.420943
166.85,29.41744452,518.7950427,729.4759702
167.85,29.0514612,521.3549868,729.5319973
168.85,28.68451318,523.9557091,729.589069
169.85,28.31537496,526.5986722,729.6472324
170.85,27.94516891,529.2854013,729.7065485
171.85,27.57266304,532.0174869,729.7670503
172.85,27.19897212,534.7965872,729.8288001
173.85,26.8228565,537.6244308,729.8918578
174.85,26.44542237,540.5028185,729.9562863
175.85,26.0654207,543.4336259,730.022152
176.85,25.68394743,546.418805,730.0895256
177.85,25.29974231,549.4603857,730.1584824
178.85,24.91388898,552.5604766,730.229114
179.85,24.52511383,555.7212659,730.3014858
180.85,24.13448528,558.9450204,730.3757064
181.85,23.74071376,562.2340843,730.4518585
182.85,23.34484924,565.5908766,730.5300518
183.85,22.94558251,569.017887,730.6104109
184.85,22.54394171,572.5176694,730.6930426
185.85,22.13859294,576.0928338,730.7780827
186.85,21.73053774,579.7460352,730.8656825
187.85,21.31841271,583.4799586,730.9559908
188.85,20.90318607,587.2973014,731.0491743
189.85,20.48345845,591.2007496,731.1454215
190.85,20.06015803,595.1929503,731.2449479
191.85,19.63184151,599.2764765,731.3479626
192.85,19.1993882,603.4537871,731.4547215
193.85,18.76130203,607.7271781,731.5655105
194.85,18.31840476,612.0987274,731.6806452
195.85,17.8691372,616.5702316,731.8004733
196.85,17.41425439,621.1431377,731.9254069
197.85,16.9521259,625.8184695,732.0559251
198.85,16.48343249,630.5967545,732.1925577
199.85,16.00646702,635.4779564,732.3359446
200.85,15.52183449,640.4614216,732.4868441
201.85,15.02775516,645.5458534,732.6461604
202.85,14.52476774,650.7293306,732.8149659
203.85,14.01103949,656.0093909,732.9945897
204.85,13.48707445,661.3832069,733.1866749
205.85,12.95103172,666.8478828,733.3932408
206.85,12.40344144,672.4009033,733.6168604
207.85,11.84253359,678.0407599,733.8608308
208.85,11.26896193,683.7677756,734.1294161
209.85,10.68113985,689.5851321,734.4282549
210.85,10.07997157,695.5000876,734.7649425
211.85,9.464189503,701.5253557,735.1499179
212.85,8.835086753,707.6806013,735.5977867
213.85,8.191853842,713.9939963,736.1295421
214.85,7.536315921,720.5037475,736.7759756
215.85,6.868281392,727.2594066,737.583189
216.85,6.1903063,734.3224896,738.6217346
217.85,5.503089337,741.7653338,740.0015841
218.85,4.810308048,749.6663624,741.89699
219.85,4.114068213,758.0996595,744.5875724
220.85,3.419792064,767.1222233,748.524452
221.85,2.731637002,776.7836049,754.4338379
222.85,2.057295941,787.2462039,763.4829154
223.85,1.403555875,799.2763234,777.6292378