Time,Mass,Back Surface Temperature,Top Surface Temperature
[s],[g],[K],[K]
0,144.504,293,293
1,144.504,293,350.0399349
2.005,144.503998,293,385.9522646
3.01,144.503976,293,414.3006848
4.015,144.503811,293,438.2359999
5.02,144.50302,293,459.1427552
6.025,144.500241,293,477.7329736
7.03,144.492801,293,494.3637451
8.035,144.477743,293,509.2317277
9.035,144.454676,293,522.5424049
10.035,144.4259,293.0000001,534.7671921
11.035,144.39441,293.0000004,546.2393112
12.035,144.362285,293.0000012,557.139958
13.035,144.330602,293.0000034,567.5473044
14.035,144.299772,293.0000088,577.4943385
15.035,144.269786,293.0000211,586.994696
16.035,144.240313,293.0000471,596.0478186
17.04,144.210521,293.000099,604.6765951
18.045,144.179425,293.0001954,612.7894889
19.05,144.145341,293.0003644,620.3091361
20.055,144.106036,293.0006462,627.128274
21.06,144.058961,293.0010949,633.1306047
22.065,144.001744,293.0017811,638.2302434
23.07,143.932757,293.0027936,642.4129822
24.075,143.851434,293.0042407,645.750961
25.08,143.758162,293.0062512,648.3793897
26.085,143.653925,293.0089743,650.4543168
27.09,143.539934,293.0125795,652.1182836
28.095,143.417387,293.0172558,653.4847692
29.1,143.287353,293.0232105,654.6371307
30.105,143.150742,293.0306675,655.6340347
31.11,143.008311,293.0398657,656.5160451
32.115,142.860688,293.0510564,657.3111669
33.115,142.709175,293.0644287,658.0354215
34.115,142.55347,293.0802992,658.7065391
35.115,142.393939,293.0989399,659.334295
36.115,142.230895,293.1206263,659.9258586
37.115,142.064607,293.1456357,660.4865887
38.115,141.89531,293.1742448,661.0205664
39.115,141.723212,293.2067279,661.5309574
40.115,141.548496,293.2433557,662.0202607
41.115,141.371323,293.284393,662.490483
42.115,141.191841,293.330098,662.9432627
43.115,141.010181,293.3807206,663.3799584
44.115,140.826462,293.4365016,663.801714
45.115,140.640794,293.4976718,664.2095063
46.115,140.453274,293.564451,664.6041813
47.115,140.263996,293.6370475,664.9864802
48.115,140.073041,293.7156578,665.3570607
49.115,139.880489,293.8004659,665.7165122
50.115,139.68641,293.891643,666.0653682
51.115,139.490872,293.9893478,666.4041155
52.115,139.293936,294.0937259,666.7332019
53.115,139.09566,294.2049099,667.0530419
54.115,138.896099,294.3230197,667.3640212
55.115,138.695303,294.4481626,667.6665007
56.115,138.49332,294.5804334,667.9608195
57.115,138.290194,294.7199145,668.247297
58.115,138.085968,294.8666766,668.5262352
59.115,137.880681,295.020779,668.7979205
60.115,137.674371,295.1822696,669.0626246
61.115,137.467073,295.3511858,669.3206061
62.115,137.258822,295.5275544,669.5721111
63.115,137.049648,295.7113927,669.8173744
64.115,136.839582,295.9027085,670.0566203
65.12,136.627594,296.1025133,670.2912158
66.125,136.414762,296.3098598,670.5201575
67.13,136.201111,296.52473,670.7436441
68.135,135.986668,296.7470988,670.9618656
69.14,135.771457,296.9769334,671.1750039
70.145,135.555499,297.2141948,671.3832333
71.15,135.338817,297.4588377,671.5867206
72.155,135.121431,297.7108109,671.7856256
73.16,134.903362,297.9700581,671.9801016
74.165,134.684628,298.2365181,672.1702953
75.17,134.465248,298.5101252,672.3563477
76.175,134.245239,298.7908096,672.5383937
77.18,134.024618,299.0784979,672.7165629
78.185,133.803401,299.3731134,672.8909797
79.19,133.581603,299.6745764,673.0617634
80.195,133.359239,299.9828044,673.2290285
81.2,133.136324,300.2977128,673.3928851
82.205,132.912872,300.6192148,673.5534388
83.21,132.688894,300.9472218,673.7107912
84.215,132.464405,301.2816439,673.8650398
85.22,132.239415,301.6223897,674.0162784
86.225,132.013938,301.9693669,674.1645973
87.23,131.787984,302.3224823,674.310083
88.235,131.561565,302.6816421,674.4528192
89.24,131.33469,303.0467522,674.592886
90.245,131.10737,303.4177181,674.7303608
91.25,130.879615,303.7944451,674.865318
92.255,130.651434,304.1768389,674.9978293
93.26,130.422837,304.564805,675.1279638
94.265,130.193832,304.9582496,675.2557879
95.27,129.964428,305.357079,675.3813659
96.275,129.734633,305.7612003,675.5047595
97.28,129.504455,306.170521,675.6260285
98.285,129.273902,306.5849497,675.7452304
99.29,129.042981,307.0043954,675.8624208
100.295,128.811701,307.4287683,675.9776531
101.3,128.580066,307.8579794,676.0909793
102.305,128.348086,308.2919408,676.2024492
103.31,128.115765,308.7305657,676.3121113
104.315,127.883111,309.1737684,676.4200121
105.32,127.65013,309.6214642,676.5261968
106.325,127.416827,310.0735698,676.6307089
107.33,127.183209,310.5300031,676.7335908
108.335,126.94928,310.9906833,676.8348831
109.34,126.715048,311.4555308,676.9346254
110.345,126.480516,311.9244673,677.0328558
111.35,126.24569,312.397416,677.1296114
112.355,126.010576,312.8743012,677.224928
113.36,125.775177,313.3550486,677.3188403
114.365,125.539498,313.8395855,677.411382
115.37,125.303545,314.3278403,677.5025855
116.375,125.067321,314.8197429,677.5924825
117.38,124.830831,315.3152244,677.6811035
118.385,124.594079,315.8142175,677.7684784
119.39,124.357069,316.316656,677.8546359
120.395,124.119805,316.8224754,677.9396039
121.4,123.88229,317.3316121,678.0234095
122.405,123.644529,317.8440042,678.1060791
123.41,123.406525,318.3595909,678.1876382
124.415,123.168281,318.878313,678.2681117
125.42,122.929801,319.4001123,678.3475236
126.425,122.691088,319.9249321,678.4258974
127.43,122.452146,320.4527168,678.5032558
128.435,122.212977,320.9834122,678.579621
129.44,121.973584,321.5169653,678.6550144
130.445,121.73397,322.0533244,678.729457
131.45,121.494139,322.592439,678.802969
132.455,121.254092,323.1342597,678.8755703
133.46,121.013832,323.6787383,678.9472802
134.465,120.773363,324.2258279,679.0181172
135.47,120.532686,324.7754826,679.0880997
136.475,120.291804,325.3276578,679.1572454
137.48,120.050719,325.8823098,679.2255716
138.485,119.809434,326.4393962,679.293095
139.49,119.567951,326.9988755,679.3598322
140.495,119.326271,327.5607074,679.425799
141.5,119.084397,328.1248526,679.4910109
142.505,118.842331,328.6912727,679.5554833
143.51,118.600075,329.2599306,679.6192307
144.515,118.357631,329.8307898,679.6822677
145.52,118.115,330.4038151,679.7446083
146.525,117.872184,330.9789719,679.8062661
147.53,117.629186,331.556227,679.8672546
148.535,117.386006,332.1355478,679.9275867
149.54,117.142646,332.7169025,679.9872753
150.545,116.899108,333.3002604,680.0463326
151.55,116.655393,333.8855917,680.1047708
152.555,116.411502,334.4728671,680.1626017
153.56,116.167438,335.0620586,680.2198369
154.565,115.923201,335.6531387,680.2764876
155.57,115.678792,336.2460807,680.3325649
156.575,115.434214,336.8408588,680.3880795
157.58,115.189466,337.4374478,680.4430418
158.585,114.94455,338.0358235,680.4974622
159.59,114.699468,338.6359621,680.5513507
160.595,114.45422,339.2378409,680.604717
161.6,114.208807,339.8414375,680.6575708
162.605,113.963231,340.4467305,680.7099215
163.61,113.717492,341.053699,680.761778
164.615,113.47159,341.6623228,680.8131496
165.62,113.225528,342.2725823,680.8640447
166.625,112.979306,342.8844586,680.9144722
167.63,112.732924,343.4979333,680.9644402
168.635,112.486383,344.1129888,681.013957
169.64,112.239685,344.7296079,681.0630307
170.645,111.992829,345.3477741,681.111669
171.65,111.745816,345.9674713,681.1598797
172.655,111.498647,346.5886841,681.2076702
173.66,111.251323,347.2113975,681.255048
174.665,111.003844,347.8355972,681.3020201
175.67,110.75621,348.4612693,681.3485938
176.675,110.508422,349.0884003,681.3947758
177.68,110.26048,349.7169775,681.440573
178.685,110.012386,350.3469883,681.4859919
179.69,109.764138,350.9784208,681.5310391
180.695,109.515738,351.6112635,681.5757208
181.7,109.267186,352.2455054,681.6200435
182.705,109.018482,352.8811357,681.6640131
183.71,108.769627,353.5181444,681.7076356
184.715,108.52062,354.1565215,681.7509169
185.72,108.271463,354.7962578,681.7938628
186.725,108.022154,355.4373442,681.8364788
187.73,107.772694,356.0797722,681.8787705
188.735,107.523084,356.7235334,681.9207433
189.74,107.273324,357.36862,681.9624026
190.745,107.023413,358.0150244,682.0037535
191.75,106.773352,358.6627396,682.0448012
192.755,106.52314,359.3117587,682.0855506
193.76,106.272779,359.962075,682.1260066
194.765,106.022267,360.6136826,682.1661742
195.77,105.771604,361.2665754,682.206058
196.775,105.520792,361.920748,682.2456626
197.78,105.269828,362.576195,682.2849927
198.785,105.018715,363.2329114,682.3240527
199.79,104.76745,363.8908925,682.362847
200.795,104.516035,364.5501339,682.4013798
201.8,104.264469,365.2106313,682.4396555
202.805,104.012752,365.8723809,682.4776781
203.81,103.760883,366.535379,682.5154518
204.815,103.508863,367.1996221,682.5529805
205.82,103.256691,367.865107,682.5902683
206.825,103.004367,368.5318307,682.6273188
207.83,102.751891,369.1997904,682.664136
208.835,102.499261,369.8689836,682.7007236
209.84,102.246479,370.5394079,682.7370852
210.845,101.993544,371.2110611,682.7732244
211.85,101.740454,371.8839413,682.8091447
212.855,101.487211,372.5580465,682.8448497
213.86,101.233813,373.2333753,682.8803427
214.865,100.98026,373.9099261,682.915627
215.87,100.726551,374.5876975,682.950706
216.875,100.472687,375.2666885,682.985583
217.88,100.218667,375.946898,683.020261
218.885,99.964489,376.6283251,683.0547432
219.89,99.710154,377.310969,683.0890327
220.895,99.455661,377.9948292,683.1231326
221.9,99.20101,378.6799049,683.1570457
222.905,98.946199,379.3661959,683.190775
223.91,98.691229,380.0537017,683.2243234
224.915,98.436098,380.7424221,683.2576937
225.92,98.180806,381.432357,683.2908887
226.925,97.925353,382.1235062,683.3239111
227.93,97.669737,382.8158697,683.3567636
228.935,97.413959,383.5094475,683.3894488
229.94,97.158016,384.2042396,683.4219695
230.945,96.901909,384.9002462,683.454328
231.95,96.645637,385.5974674,683.486527
232.955,96.389198,386.2959032,683.5185689
233.96,96.132593,386.995554,683.5504561
234.965,95.87582,387.6964197,683.5821911
235.97,95.618878,388.3985007,683.6137762
236.975,95.361767,389.1017969,683.6452137
237.98,95.104485,389.8063085,683.676506
238.985,94.847032,390.5120355,683.7076553
239.99,94.589408,391.2189779,683.7386637
240.995,94.331609,391.9271357,683.7695336
242,94.073637,392.6365087,683.8002669
243.005,93.81549,393.3470968,683.8308659
244.01,93.557166,394.0588996,683.8613327
245.015,93.298665,394.7719166,683.8916692
246.02,93.039986,395.4861474,683.9218775
247.025,92.781128,396.2015913,683.9519596
248.03,92.522088,396.9182475,683.9819175
249.035,92.262868,397.636115,684.0117531
250.04,92.003464,398.3551926,684.0414682
251.045,91.743877,399.075479,684.0710648
252.05,91.484104,399.7969727,684.1005446
253.055,91.224144,400.5196719,684.1299096
254.06,90.963997,401.2435746,684.1591615
255.065,90.703661,401.9686786,684.1883021
256.07,90.443134,402.6949815,684.2173331
257.075,90.182416,403.4224804,684.2462561
258.08,89.921504,404.1511723,684.275073
259.085,89.660398,404.8810538,684.3037854
260.09,89.399096,405.6121212,684.3323949
261.095,89.137597,406.3443705,684.3609031
262.1,88.875898,407.0777972,684.3893116
263.105,88.613999,407.8123966,684.4176221
264.11,88.351899,408.5481635,684.4458359
265.115,88.089594,409.2850922,684.4739548
266.12,87.827084,410.0231769,684.5019801
267.125,87.564368,410.7624108,684.5299134
268.13,87.301443,411.5027872,684.5577561
269.135,87.038308,412.2442985,684.5855097
270.14,86.774961,412.9869368,684.6131756
271.145,86.5114,413.7306937,684.6407553
272.15,86.247624,414.47556,684.66825
273.155,85.983631,415.2215264,684.6956613
274.16,85.719418,415.9685825,684.7229903
275.165,85.454985,416.7167178,684.7502386
276.17,85.190329,417.4659208,684.7774074
277.175,84.925447,418.2161796,684.804498
278.18,84.66034,418.9674818,684.8315118
279.185,84.395003,419.7198141,684.85845
280.19,84.129436,420.4731626,684.8853138
281.195,83.863635,421.227513,684.9121046
282.2,83.5976,421.9828501,684.9388236
283.205,83.331329,422.7391582,684.9654721
284.21,83.064818,423.4964208,684.9920511
285.215,82.798066,424.254621,685.0185621
286.22,82.53107,425.013741,685.0450062
287.225,82.263829,425.7737626,685.0713845
288.23,81.996341,426.5346669,685.0976984
289.235,81.728603,427.2964346,685.1239489
290.24,81.460613,428.0590456,685.1501373
291.245,81.192368,428.8224795,685.1762648
292.25,80.923867,429.5867153,685.2023326
293.255,80.655108,430.3517318,685.2283417
294.26,80.386088,431.1175074,685.2542935
295.265,80.116804,431.8840199,685.2801891
296.27,79.847256,432.6512474,685.3060298
297.275,79.57744,433.4191676,685.3318166
298.28,79.307355,434.1877582,685.3575508
299.285,79.036998,434.956997,685.3832336
300.29,78.766368,435.7268621,685.4088663
301.295,78.495462,436.4973319,685.4344501
302.3,78.224278,437.2683853,685.4599862
303.305,77.952815,438.0400016,685.4854759
304.31,77.68107,438.8121614,685.5109205
305.315,77.409042,439.5848459,685.5363212
306.32,77.136728,440.3580377,685.5616794
307.325,76.864128,441.1317208,685.5869965
308.33,76.59124,441.9058806,685.6122737
309.335,76.318062,442.6805048,685.6375125
310.34,76.044593,443.4555828,685.6627143
311.345,75.770832,444.2311069,685.6878806
312.35,75.496777,445.0070716,685.7130127
313.355,75.222428,445.7834747,685.7381123
314.36,74.947783,446.5603172,685.7631808
315.365,74.672843,447.3376036,685.7882197
316.37,74.397607,448.1153424,685.8132308
317.375,74.122074,448.8935464,685.8382157
318.38,73.846244,449.6722329,685.8631759
319.385,73.570117,450.451424,685.8881132
320.39,73.293694,451.2311471,685.9130294
321.395,73.016975,452.0114352,685.9379262
322.4,72.739961,452.7923271,685.9628053
323.405,72.462653,453.5738676,685.9876687
324.41,72.185051,454.3561082,686.0125181
325.415,71.907158,455.1391068,686.0373555
326.42,71.628974,455.9229283,686.0621828
327.425,71.350502,456.7076449,686.0870019
328.43,71.071744,457.4933358,686.1118148
329.435,70.792702,458.280088,686.1366233
330.44,70.513379,459.0679957,686.1614296
331.445,70.233777,459.8571608,686.1862356
332.45,69.9539,460.6476931,686.2110432
333.455,69.673751,461.4397096,686.2358546
334.46,69.393332,462.2333349,686.2606716
335.465,69.112649,463.028701,686.2854962
336.47,68.831705,463.8259471,686.3103305
337.475,68.550503,464.6252191,686.3351764
338.48,68.269049,465.4266696,686.3600357
339.485,67.987346,466.2304576,686.3849105
340.49,67.705399,467.0367475,686.4098026
341.495,67.423213,467.8457095,686.4347138
342.5,67.140792,468.6575184,686.4596459
343.505,66.858141,469.4723532,686.4846008
344.51,66.575266,470.2903969,686.50958
345.515,66.29217,471.1118352,686.5345854
346.52,66.008859,471.9368564,686.5596184
347.525,65.725338,472.7656504,686.5846807
348.53,65.441611,473.5984082,686.6097739
349.535,65.157684,474.435321,686.6348993
350.54,64.87356,475.2765796,686.6600584
351.545,64.589246,476.1223735,686.6852525
352.55,64.304744,476.9728905,686.710483
353.555,64.020059,477.8283156,686.7357512
354.56,63.735197,478.6888306,686.7610582
355.565,63.450159,479.5546133,686.7864053
356.57,63.164951,480.4258368,686.8117936
357.575,62.879575,481.3026692,686.8372242
358.58,62.594034,482.1852725,686.8626981
359.585,62.308333,483.0738025,686.8882164
360.59,62.022472,483.9684082,686.9137802
361.595,61.736455,484.8692314,686.9393903
362.6,61.450283,485.7764059,686.9650478
363.605,61.163959,486.6900578,686.9907536
364.61,60.877482,487.6103047,687.0165087
365.615,60.590854,488.5372557,687.042314
366.62,60.304077,489.4710111,687.0681705
367.625,60.017148,490.4116621,687.0940792
368.63,59.730069,491.359291,687.1200409
369.635,59.442839,492.313971,687.1460566
370.64,59.155456,493.2757661,687.1721274
371.645,58.867919,494.2447313,687.1982542
372.65,58.580226,495.2209124,687.224438
373.655,58.292375,496.2043463,687.25068
374.66,58.004363,497.1950613,687.2769811
375.665,57.716186,498.1930767,687.3033425
376.67,57.427841,499.1984038,687.3297652
377.675,57.139324,500.2110453,687.3562505
378.68,56.85063,501.2309962,687.3827995
379.685,56.561755,502.2582435,687.4094135
380.69,56.272693,503.2927671,687.4360936
381.695,55.983438,504.3345395,687.4628411
382.7,55.693985,505.3835266,687.4896574
383.705,55.404326,506.4396874,687.5165438
384.71,55.114455,507.502975,687.5435017
385.715,54.824364,508.5733365,687.5705323
386.72,54.534046,509.6507134,687.5976372
387.725,54.243493,510.7350417,687.6248177
388.73,53.952696,511.8262527,687.6520753
389.735,53.661646,512.9242728,687.6794114
390.74,53.370334,514.0290239,687.7068276
391.745,53.078751,515.1404239,687.7343252
392.75,52.786887,516.2583865,687.7619058
393.755,52.494731,517.3828221,687.7895709
394.76,52.202274,518.5136371,687.817322
395.765,51.909504,519.6507349,687.8451604
396.77,51.61641,520.7940156,687.8730878
397.775,51.32298,521.9433763,687.9011056
398.78,51.029204,523.0987113,687.9292151
399.785,50.735068,524.2599118,687.9574179
400.79,50.440561,525.4268665,687.9857153
401.795,50.14567,526.5994612,688.0141087
402.8,49.850383,527.777579,688.0425995
403.805,49.554685,528.9611,688.0711889
404.81,49.258563,530.1499018,688.0998783
405.815,48.962005,531.3438588,688.1286687
406.82,48.664995,532.5428421,688.1575615
407.825,48.36752,533.7467199,688.1865578
408.83,48.069566,534.9553564,688.2156585
409.835,47.771117,536.1686125,688.2448648
410.84,47.472158,537.3863447,688.2741775
411.845,47.172674,538.6084051,688.3035975
412.85,46.87265,539.8346411,688.3331257
413.855,46.57207,541.0648948,688.3627628
414.86,46.270918,542.2990027,688.3925094
415.865,45.969177,543.5367949,688.4223662
416.87,45.666831,544.7780947,688.4523336
417.875,45.363863,546.0227181,688.482412
418.88,45.060255,547.2704729,688.5126017
419.885,44.755991,548.5211583,688.5429029
420.89,44.451052,549.7745636,688.5733159
421.895,44.14542,551.030468,688.6038405
422.9,43.839076,552.2886391,688.6344766
423.905,43.532003,553.5488327,688.6652242
424.91,43.224181,554.810791,688.6960828
425.915,42.91559,556.0742423,688.7270521
426.92,42.60621,557.3388997,688.7581314
427.925,42.296023,558.6044596,688.7893201
428.93,41.985006,559.8706014,688.8206175
429.935,41.673139,561.1369855,688.8520225
430.94,41.360402,562.4032528,688.8835343
431.945,41.046772,563.6690231,688.9151515
432.95,40.732228,564.9338941,688.9468729
433.955,40.416747,566.1974406,688.9786971
434.96,40.100307,567.459213,689.0106225
435.965,39.782886,568.7187364,689.0426476
436.97,39.464461,569.97551,689.0747706
437.975,39.145008,571.2290065,689.1069895
438.98,38.824504,572.4786708,689.1393026
439.985,38.502926,573.7239208,689.1717077
440.99,38.18025,574.9641465,689.2042028
441.995,37.856453,576.1987106,689.2367858
443,37.531511,577.4269496,689.2694544
444.005,37.205403,578.648174,689.3022067
445.01,36.878104,579.8616707,689.3350403
446.015,36.549594,581.066705,689.3679533
447.02,36.21985,582.262523,689.4009436
448.025,35.888852,583.4483552,689.4340094
449.03,35.55658,584.623421,689.4671489
450.035,35.223016,585.786933,689.5003605
451.04,34.888143,586.9381028,689.5336429
452.045,34.551944,588.0761476,689.566995
453.05,34.214407,589.200297,689.6004161
454.055,33.87552,590.3098012,689.6339056
455.06,33.535272,591.4039392,689.6674635
456.065,33.193657,592.4820281,689.7010901
457.07,32.850671,593.5434323,689.7347862
458.075,32.506312,594.5875737,689.7685528
459.08,32.160582,595.6139411,689.8023917
460.085,31.813485,596.6221003,689.836305
461.09,31.465029,597.6117035,689.8702952
462.095,31.115226,598.582498,689.9043656
463.1,30.76409,599.5343346,689.9385197
464.105,30.411639,600.4671741,689.9727616
465.11,30.057896,601.3810937,690.0070959
466.115,29.702885,602.2762907,690.0415276
467.12,29.346633,603.1530853,690.0760624
468.125,28.989172,604.0119216,690.1107063
469.13,28.630535,604.8533665,690.1454658
470.135,28.270757,605.6781068,690.180348
471.14,27.909876,606.4869448,690.2153607
472.145,27.547933,607.2807914,690.250512
473.15,27.184966,608.0606589,690.2858109
474.155,26.821019,608.8276508,690.3212672
475.16,26.456132,609.5829518,690.3568913
476.165,26.090349,610.3278164,690.3926947
477.17,25.723711,611.0635565,690.4286901
478.175,25.35626,611.7915289,690.4648913
479.18,24.988036,612.5131232,690.5013132
480.185,24.619078,613.2297493,690.5379726
481.19,24.249424,613.9428254,690.5748878
482.195,23.87911,614.6537667,690.6120789
483.2,23.508172,615.3639755,690.6495682
484.205,23.136641,616.0748317,690.6873801
485.21,22.764548,616.7876846,690.7255414
