Time,Mass,Back Surface Temperature,Top Surface Temperature
[s],[g],[K],[K]
0,72.252,293,293
1,72.252,293.0000124,315.5691212
2.005,72.252,293.0000562,330.2385976
3.01,72.252,293.0001963,342.027775
4.015,72.252,293.0006365,352.1258219
5.02,72.252,293.0019683,361.0678809
6.025,72.251999,293.0056177,369.1537059
7.03,72.251998,293.0142784,376.5704759
8.035,72.251997,293.0320273,383.4451694
9.035,72.251993,293.0638473,389.8377129
10.035,72.251987,293.1155102,395.8503341
11.035,72.251976,293.1928056,401.5344487
12.035,72.251958,293.3011778,406.9306408
13.035,72.251929,293.4454369,412.0715935
14.035,72.251885,293.6296,416.9840609
15.035,72.251818,293.8568353,421.6902382
16.035,72.251721,294.1294778,426.2087391
17.04,72.25158,294.4508078,430.5766329
18.045,72.251383,294.8204643,434.7844743
19.05,72.25111,295.2387288,438.8438953
20.055,72.25074,295.7053747,442.7648751
21.06,72.250246,296.2197585,446.5559931
22.065,72.249597,296.7809023,450.2246366
23.07,72.248758,297.3875668,453.7771776
24.075,72.247687,298.0383138,457.2191312
25.08,72.246339,298.7315589,460.5553054
26.085,72.244668,299.4656166,463.7899472
27.09,72.242622,300.2387361,466.9268897
28.095,72.240153,301.0491313,469.9696985
29.1,72.237213,301.8950052,472.9218134
30.105,72.233759,302.7745683,475.7866779
31.11,72.229755,303.6860538,478.5678443
32.115,72.225174,304.6277292,481.2690466
33.115,72.220028,305.5930103,483.8813525
34.115,72.214291,306.5848924,486.4224814
35.115,72.207967,307.6018117,488.8966664
36.115,72.201074,308.6422598,491.3082095
37.115,72.193638,309.704785,493.6613883
38.115,72.185691,310.7879937,495.960361
39.115,72.177273,311.8905496,498.209082
40.115,72.168424,313.0111739,500.4112366
41.115,72.159188,314.1486438,502.5701972
42.115,72.149608,315.3017918,504.6890025
43.115,72.139726,316.4695039,506.770356
44.115,72.129583,317.6507182,508.8166387
45.115,72.119216,318.8444236,510.8299332
46.115,72.108658,320.049658,512.812053
47.115,72.097942,321.2655065,514.7645747
48.115,72.087093,322.4911004,516.6888698
49.115,72.076137,323.7256152,518.5861349
50.115,72.065096,324.968269,520.4574193
51.115,72.053988,326.2183215,522.3036488
52.115,72.04283,327.4750719,524.1256467
53.115,72.031635,328.7378576,525.924151
54.115,72.020415,330.0060528,527.6998296
55.115,72.00918,331.2790668,529.4532916
56.115,71.99794,332.5563429,531.1850978
57.115,71.9867,333.8373563,532.8957681
58.115,71.975467,335.1216131,534.5857883
59.115,71.964246,336.4086486,536.2556151
60.115,71.95304,337.698026,537.90568
61.115,71.941852,338.9893347,539.5363926
62.115,71.930684,340.2821895,541.1481432
63.115,71.919538,341.5762283,542.7413049
64.115,71.908415,342.8711119,544.3162347
65.12,71.89726,344.1729995,545.8810158
66.125,71.886129,345.4751156,547.4280618
67.13,71.87502,346.777176,548.9576929
68.135,71.863934,348.0789146,550.4702166
69.14,71.852869,349.3800818,551.9659279
70.145,71.841824,350.6804441,553.4451099
71.15,71.830797,351.9797822,554.9080333
72.155,71.819787,353.2778909,556.354957
73.16,71.80879,354.5745778,557.786128
74.165,71.797806,355.8696626,559.2017813
75.17,71.78683,357.1629761,560.60214
76.175,71.775861,358.4543597,561.987415
77.18,71.764894,359.7436646,563.3578048
78.185,71.753927,361.0307512,564.7134957
79.19,71.742956,362.3154884,566.0546613
80.195,71.731978,363.597753,567.3814623
81.2,71.720987,364.8774295,568.6940465
82.205,71.70998,366.154409,569.9925487
83.21,71.698952,367.4285891,571.2770899
84.215,71.687899,368.6998737,572.5477776
85.22,71.676814,369.968172,573.8047055
86.225,71.665693,371.2333985,575.0479531
87.23,71.654529,372.4954725,576.2775859
88.235,71.643316,373.7543178,577.4936546
89.24,71.632048,375.0098624,578.6961954
90.245,71.620717,376.2620382,579.88523
91.25,71.609316,377.5107806,581.0607651
92.255,71.597837,378.7560283,582.2227926
93.26,71.586272,379.9977229,583.3712894
94.265,71.574612,381.2358091,584.506218
95.27,71.562848,382.470234,585.6275259
96.275,71.55097,383.7009469,586.7351464
97.28,71.538967,384.9278993,587.8289987
98.285,71.52683,386.1510448,588.9089883
99.29,71.514546,387.3703384,589.9750076
100.295,71.502104,388.585737,591.0269363
101.3,71.489491,389.7971985,592.0646425
102.305,71.476696,391.0046821,593.0879834
103.31,71.463703,392.2081482,594.0968063
104.315,71.4505,393.4075577,595.0909497
105.32,71.437072,394.6028725,596.070245
106.325,71.423404,395.7940547,597.0345173
107.33,71.409481,396.9810671,597.9835875
108.335,71.395286,398.1638725,598.9172739
109.34,71.380805,399.3424339,599.835394
110.345,71.366019,400.5167142,600.7377664
111.35,71.350913,401.6866762,601.6242129
112.355,71.33547,402.8522822,602.4945608
113.36,71.319671,404.0134943,603.3486447
114.365,71.303499,405.1702737,604.1863091
115.37,71.286938,406.3225811,605.0074105
116.375,71.269968,407.4703765,605.8118193
117.38,71.252573,408.6136188,606.5994226
118.385,71.234735,409.7522658,607.3701252
119.39,71.216437,410.8862744,608.1238527
120.395,71.197661,412.0156,608.8605522
121.4,71.178391,413.140197,609.5801943
122.405,71.15861,414.2600182,610.2827746
123.41,71.138302,415.375015,610.9683144
124.415,71.117453,416.4851371,611.6368616
125.42,71.096045,417.590333,612.2884916
126.425,71.074067,418.6905494,612.9233069
127.43,71.051503,419.7857312,613.5414377
128.435,71.028341,420.875822,614.143041
129.44,71.004569,421.9607636,614.7283004
130.445,70.980174,423.0404961,615.2974253
131.45,70.955148,424.1149584,615.850649
132.455,70.929479,425.1840876,616.3882285
133.46,70.903159,426.2478195,616.910442
134.465,70.876179,427.3060888,617.4175877
135.47,70.848533,428.3588289,617.9099816
136.475,70.820214,429.4059724,618.387956
137.48,70.791216,430.4474511,618.8518572
138.485,70.761534,431.4831962,619.3020433
139.49,70.731165,432.5131388,619.7388826
140.495,70.700105,433.53721,620.1627512
141.5,70.668352,434.5553414,620.5740311
142.505,70.635905,435.5674653,620.9731084
143.51,70.602761,436.5735151,621.3603712
144.515,70.568922,437.5734259,621.7362084
145.52,70.534387,438.5671349,622.1010075
146.525,70.499158,439.5545818,622.4551536
147.53,70.463236,440.5357096,622.7990277
148.535,70.426623,441.5104647,623.1330057
149.54,70.389324,442.478798,623.4574575
150.545,70.351341,443.4406652,623.7727457
151.55,70.312678,444.3960275,624.0792249
152.555,70.27334,445.3448523,624.3772411
153.56,70.233333,446.2871137,624.6671313
154.565,70.192661,447.2227932,624.9492227
155.57,70.151332,448.1518804,625.2238327
156.575,70.109352,449.0743733,625.4912683
157.58,70.066728,449.9902793,625.7518262
158.585,70.023468,450.8996154,626.0057928
159.59,69.97958,451.8024089,626.2534436
160.595,69.935073,452.6986976,626.4950441
161.6,69.889956,453.5885302,626.7308492
162.605,69.844238,454.4719668,626.9611036
163.61,69.797929,455.3490789,627.1860421
164.615,69.75104,456.2199495,627.4058894
165.62,69.703581,457.0846732,627.6208608
166.625,69.655563,457.943356,627.8311623
167.63,69.606998,458.796115,628.0369906
168.635,69.557897,459.6430785,628.2385337
169.64,69.508272,460.484385,628.4359711
170.645,69.458135,461.3201831,628.629474
171.65,69.407499,462.1506308,628.8192057
172.655,69.356377,462.9758945,629.0053219
173.66,69.30478,463.7961485,629.1879709
174.665,69.252723,464.6115739,629.3672938
175.67,69.200217,465.4223577,629.5434253
176.675,69.147276,466.2286918,629.7164931
177.68,69.093912,467.0307719,629.8866192
178.685,69.040139,467.8287964,630.0539192
179.69,68.98597,468.6229653,630.2185034
180.695,68.931416,469.4134789,630.3804763
181.7,68.876492,470.200537,630.5399374
182.705,68.821208,470.9843377,630.6969812
183.71,68.765578,471.7650761,630.8516977
184.715,68.709612,472.5429437,631.004172
185.72,68.653324,473.3181272,631.1544852
186.725,68.596723,474.0908076,631.3027143
187.73,68.539822,474.8611596,631.4489324
188.735,68.482631,475.6293507,631.5932089
189.74,68.425159,476.3955406,631.7356134
190.745,68.367417,477.1598808,631.8762035
191.75,68.309415,477.9225138,632.0150394
192.755,68.251161,478.683573,632.152178
193.76,68.192664,479.4431825,632.2876733
194.765,68.133933,480.2014566,632.4215765
195.77,68.074974,480.9584998,632.5539364
196.775,68.015796,481.7144067,632.6847992
197.78,67.956406,482.4692623,632.8142091
198.785,67.896809,483.2231417,632.942208
199.79,67.837012,483.9761105,633.0688359
200.795,67.77702,484.728225,633.194131
201.8,67.71684,485.4795324,633.3181295
202.805,67.656474,486.2300709,633.4408663
203.81,67.595929,486.9798704,633.5623745
204.815,67.535208,487.7289527,633.6826857
205.82,67.474314,488.4773319,633.8018302
206.825,67.41325,489.2250147,633.919837
207.83,67.352021,489.972001,634.0367338
208.835,67.290628,490.7182841,634.1525473
209.84,67.229073,491.4638515,634.2673028
210.845,67.167359,492.2086849,634.3810249
211.85,67.105487,492.9527611,634.493737
212.855,67.043459,493.696052,634.6054617
213.86,66.981275,494.4385254,634.7162205
214.865,66.918936,495.1801449,634.8260343
215.87,66.856444,495.9208711,634.9349232
216.875,66.793798,496.6606612,635.0429064
217.88,66.730998,497.3994696,635.1500024
218.885,66.668045,498.1372488,635.2562292
219.89,66.604938,498.8739488,635.3616039
220.895,66.541677,499.6095182,635.4661432
221.9,66.47826,500.3439041,635.5698631
222.905,66.414689,501.0770526,635.6727791
223.91,66.35096,501.8089088,635.7749059
224.915,66.287075,502.5394173,635.8762581
225.92,66.22303,503.2685224,635.9768495
226.925,66.158826,503.9961681,636.0766935
227.93,66.09446,504.7222985,636.175803
228.935,66.029932,505.4468581,636.2741906
229.94,65.96524,506.1697916,636.3718682
230.945,65.900381,506.8910442,636.4688477
231.95,65.835355,507.6105617,636.5651401
232.955,65.77016,508.3282911,636.6607565
233.96,65.704794,509.0441797,636.7557073
234.965,65.639255,509.7581762,636.8500026
235.97,65.573541,510.4702301,636.9436523
236.975,65.50765,511.1802923,637.0366658
237.98,65.44158,511.8883144,637.1290523
238.985,65.37533,512.5942498,637.2208207
239.99,65.308898,513.2980527,637.3119795
240.995,65.24228,513.9996788,637.4025369
242,65.175476,514.6990851,637.4925009
243.005,65.108484,515.3962299,637.5818793
244.01,65.0413,516.0910728,637.6706795
245.015,64.973924,516.7835748,637.7589087
246.02,64.906353,517.4736981,637.8465738
247.025,64.838585,518.1614065,637.9336817
248.03,64.770618,518.8466649,638.0202387
249.035,64.702451,519.5294394,638.1062513
250.04,64.634081,520.2096976,638.1917254
251.045,64.565506,520.8874083,638.2766671
252.05,64.496724,521.5625414,638.3610819
253.055,64.427733,522.2350681,638.4449754
254.06,64.358532,522.9049609,638.528353
255.065,64.289119,523.5721931,638.6112198
256.07,64.219491,524.2367393,638.6935809
257.075,64.149647,524.8985753,638.775441
258.08,64.079585,525.5576776,638.856805
259.085,64.009303,526.2140239,638.9376773
260.09,63.938799,526.867593,639.0180624
261.095,63.868072,527.5183642,639.0979647
262.1,63.79712,528.166318,639.1773883
263.105,63.725941,528.8114356,639.2563373
264.11,63.654534,529.4536992,639.3348155
265.115,63.582897,530.0930915,639.412827
266.12,63.511028,530.729596,639.4903754
267.125,63.438926,531.3631969,639.5674643
268.13,63.366589,531.9938791,639.6440974
269.135,63.294016,532.6216282,639.720278
270.14,63.221204,533.24643,639.7960097
271.145,63.148154,533.8682713,639.8712956
272.15,63.074863,534.487139,639.946139
273.155,63.00133,535.1030208,640.0205432
274.16,62.927553,535.7159047,640.0945111
275.165,62.853532,536.325779,640.1680458
276.17,62.779264,536.9326326,640.2411502
277.175,62.704749,537.5364544,640.3138274
278.18,62.629985,538.1372341,640.3860801
279.185,62.554971,538.7349612,640.4579112
280.19,62.479706,539.3296257,640.5293233
281.195,62.404188,539.9212179,640.6003193
282.2,62.328417,540.5097282,640.6709018
283.205,62.252391,541.095147,640.7410734
284.21,62.17611,541.6774652,640.8108366
285.215,62.099571,542.2566736,640.8801942
286.22,62.022775,542.8327632,640.9491485
287.225,61.945719,543.4057251,641.017702
288.23,61.868403,543.9755503,641.0858572
289.235,61.790826,544.5422301,641.1536165
290.24,61.712988,545.1057558,641.2209824
291.245,61.634886,545.6661184,641.2879571
292.25,61.55652,546.2233094,641.354543
293.255,61.477889,546.7773199,641.4207424
294.26,61.398993,547.3281411,641.4865576
295.265,61.31983,547.8757641,641.5519909
296.27,61.240399,548.4201802,641.6170446
297.275,61.1607,548.9613803,641.6817207
298.28,61.080732,549.4993555,641.7460217
299.285,61.000494,550.0340966,641.8099496
300.29,60.919986,550.5655945,641.8735067
301.295,60.839206,551.0938399,641.936695
302.3,60.758154,551.6188234,641.9995167
303.305,60.676829,552.1405356,642.061974
304.31,60.595231,552.658967,642.124069
305.315,60.513358,553.1741077,642.1858037
306.32,60.431211,553.6859481,642.2471802
307.325,60.348789,554.1944783,642.3082006
308.33,60.26609,554.6996883,642.368867
309.335,60.183115,555.2015679,642.4291814
310.34,60.099862,555.7001071,642.4891458
311.345,60.016332,556.1952954,642.5487623
312.35,59.932524,556.6871226,642.6080328
313.355,59.848437,557.1755781,642.6669594
314.36,59.764071,557.6606514,642.725544
315.365,59.679426,558.1423318,642.7837886
316.37,59.594501,558.6206088,642.8416952
317.375,59.509295,559.0954716,642.8992657
318.38,59.423808,559.5669094,642.9565022
319.385,59.338041,560.0349114,643.0134064
320.39,59.251992,560.4994668,643.0699804
321.395,59.165662,560.9605647,643.126226
322.4,59.07905,561.4181945,643.1821452
323.405,58.992155,561.8723454,643.2377399
324.41,58.904979,562.3230065,643.2930119
325.415,58.81752,562.7701674,643.3479632
326.42,58.729778,563.2138173,643.4025956
327.425,58.641754,563.6539458,643.456911
328.43,58.553447,564.0905426,643.5109112
329.435,58.464857,564.5235975,643.5645982
330.44,58.375984,564.9531004,643.6179737
331.445,58.286829,565.3790415,643.6710396
332.45,58.197391,565.8014112,643.7237977
333.455,58.10767,566.2201999,643.7762499
334.46,58.017667,566.6353986,643.828398
335.465,57.927382,567.0469984,643.8802438
336.47,57.836815,567.4549907,643.931789
337.475,57.745966,567.8593672,643.9830356
338.48,57.654835,568.2601201,644.0339853
339.485,57.563423,568.6572419,644.0846399
340.49,57.471731,569.0507255,644.1350012
341.495,57.379758,569.4405641,644.185071
342.5,57.287506,569.8267517,644.234851
343.505,57.194974,570.2092824,644.2843431
344.51,57.102163,570.5881511,644.3335489
345.515,57.009074,570.9633531,644.3824704
346.52,56.915708,571.3348843,644.4311091
347.525,56.822065,571.7027412,644.479467
348.53,56.728146,572.066921,644.5275457
349.535,56.633952,572.4274213,644.5753471
350.54,56.539483,572.7842406,644.6228728
351.545,56.444741,573.137378,644.6701246
352.55,56.349727,573.4868333,644.7171043
353.555,56.254441,573.8326071,644.7638137
354.56,56.158885,574.1747008,644.8102543
355.565,56.063059,574.5131163,644.8564281
356.57,55.966966,574.8478567,644.9023367
357.575,55.870605,575.1789257,644.9479819
358.58,55.773979,575.5063279,644.9933655
359.585,55.677089,575.8300687,645.0384891
360.59,55.579935,576.1501543,645.0833545
361.595,55.482521,576.4665922,645.1279634
362.6,55.384846,576.7793902,645.1723176
363.605,55.286913,577.0885575,645.2164188
364.61,55.188724,577.3941041,645.2602688
365.615,55.090279,577.6960408,645.3038693
366.62,54.99158,577.9943795,645.347222
367.625,54.89263,578.289133,645.3903286
368.63,54.793431,578.5803151,645.433191
369.635,54.693983,578.8679405,645.4758108
370.64,54.594289,579.152025,645.5181898
371.645,54.494351,579.4325852,645.5603297
372.65,54.394171,579.7096387,645.6022322
373.655,54.293751,579.9832043,645.6438992
374.66,54.193093,580.2533014,645.6853323
375.665,54.092199,580.5199507,645.7265333
376.67,53.991072,580.7831737,645.767504
377.675,53.889713,581.0429927,645.808246
378.68,53.788125,581.2994312,645.8487612
379.685,53.686311,581.5525135,645.8890512
380.69,53.584272,581.8022649,645.9291178
381.695,53.482012,582.0487113,645.9689629
382.7,53.379531,582.29188,646.008588
383.705,53.276834,582.5317986,646.0479951
384.71,53.173922,582.768496,646.0871858
385.715,53.070799,583.0020017,646.1261618
386.72,52.967466,583.2323461,646.164925
387.725,52.863926,583.4595602,646.2034771
388.73,52.760182,583.6836761,646.2418199
389.735,52.656237,583.9047262,646.2799551
390.74,52.552092,584.1227441,646.3178844
391.745,52.447752,584.3377637,646.3556097
392.75,52.343218,584.5498198,646.3931327
393.755,52.238494,584.7589476,646.4304551
394.76,52.133582,584.9651832,646.4675787
395.765,52.028485,585.168563,646.5045053
396.77,51.923206,585.3691241,646.5412366
397.775,51.817747,585.5669041,646.5777744
398.78,51.712111,585.761941,646.6141204
399.785,51.606302,585.9542734,646.6502765
400.79,51.500322,586.1439402,646.6862442
401.795,51.394173,586.3309807,646.7220255
402.8,51.287859,586.5154347,646.757622
403.805,51.181383,586.6973421,646.7930356
404.81,51.074747,586.8767434,646.8282679
405.815,50.967954,587.053679,646.8633207
406.82,50.861007,587.2281897,646.8981957
407.825,50.753909,587.4003167,646.9328948
408.83,50.646662,587.5701012,646.9674196
409.835,50.53927,587.7375843,647.0017719
410.84,50.431735,587.9028077,647.0359534
411.845,50.32406,588.0658128,647.0699658
412.85,50.216248,588.2266412,647.103811
413.855,50.108301,588.3853346,647.1374905
414.86,50.000222,588.5419345,647.1710061
415.865,49.892014,588.6964824,647.2043596
416.87,49.783679,588.84902,647.2375526
417.875,49.675221,588.9995887,647.2705869
418.88,49.566641,589.1482296,647.3034642
419.885,49.457943,589.2949841,647.3361861
420.89,49.349129,589.4398932,647.3687544
421.895,49.240202,589.5829976,647.4011707
422.9,49.131163,589.7243379,647.4334367
423.905,49.022017,589.8639547,647.4655542
424.91,48.912764,590.0018879,647.4975247
425.915,48.803408,590.1381776,647.5293499
426.92,48.693951,590.2728632,647.5610315
427.925,48.584395,590.405984,647.5925711
428.93,48.474743,590.537579,647.6239704
429.935,48.364997,590.6676867,647.655231
430.94,48.25516,590.7963454,647.6863546
431.945,48.145233,590.9235931,647.7173426
432.95,48.035218,591.049467,647.7481969
433.955,47.925119,591.1740044,647.7789189
434.96,47.814937,591.2972418,647.8095102
435.965,47.704673,591.4192155,647.8399724
436.97,47.594332,591.5399613,647.8703072
437.975,47.483913,591.6595145,647.900516
438.98,47.37342,591.7779101,647.9306005
439.985,47.262854,591.8951824,647.9605621
440.99,47.152218,592.0113653,647.9904024
441.995,47.041512,592.1264924,648.020123
443,46.93074,592.2405966,648.0497253
444.005,46.819902,592.3537104,648.0792108
445.01,46.709001,592.4658658,648.1085811
446.015,46.598038,592.5770943,648.1378376
447.02,46.487016,592.6874268,648.1669819
448.025,46.375935,592.7968939,648.1960153
449.03,46.264797,592.9055254,648.2249393
450.035,46.153604,593.0133508,648.2537554
451.04,46.042358,593.1203991,648.2824649
452.045,45.93106,593.2266987,648.3110694
453.05,45.819711,593.3322774,648.3395702
454.055,45.708313,593.4371627,648.3679688
455.06,45.596868,593.5413815,648.3962664
456.065,45.485376,593.64496,648.4244645
457.07,45.37384,593.7479242,648.4525644
458.075,45.26226,593.8502994,648.4805676
459.08,45.150637,593.9521105,648.5084752
460.085,45.038974,594.0533817,648.5362888
461.09,44.927271,594.154137,648.5640095
462.095,44.815529,594.2543996,648.5916386
463.1,44.70375,594.3541924,648.6191776
464.105,44.591935,594.4535379,648.6466275
465.11,44.480084,594.5524578,648.6739899
466.115,44.368199,594.6509736,648.7012658
467.12,44.256281,594.7491062,648.7284565
468.125,44.144331,594.8468762,648.7555633
469.13,44.032349,594.9443034,648.7825873
470.135,43.920338,595.0414076,648.8095299
471.14,43.808297,595.1382077,648.8363922
472.145,43.696227,595.2347224,648.8631753
473.15,43.58413,595.3309701,648.8898805
474.155,43.472007,595.4269684,648.916509
475.16,43.359857,595.5227348,648.9430619
476.165,43.247682,595.6182862,648.9695403
477.17,43.135483,595.7136392,648.9959453
478.175,43.023261,595.80881,649.0222782
479.18,42.911015,595.9038143,649.04854
480.185,42.798747,595.9986674,649.0747318
481.19,42.686458,596.0933844,649.1008547
482.195,42.574147,596.18798,649.1269098
483.2,42.461817,596.2824682,649.1528982
484.205,42.349466,596.3768631,649.1788209
485.21,42.237097,596.4711782,649.2046789
486.215,42.124709,596.5654268,649.2304734
487.22,42.012303,596.6596215,649.2562054
488.225,41.899879,596.7537751,649.2818758
489.23,41.787439,596.8478997,649.3074857
