Time (s),Temperature (K),Mass (mg)
0.0,293.6,4.836
4.2,293.6,4.836
9.0,293.7,4.851
13.8,293.7,4.849
18.6,293.7,4.844
23.4,293.7,4.842
28.2,293.7,4.841
33.0,293.7,4.841
37.8,293.8,4.840
42.6,293.8,4.841
47.4,293.8,4.840
52.2,293.9,4.839
57.0,294.0,4.839
61.8,294.0,4.839
66.6,294.1,4.837
71.4,294.2,4.836
76.2,294.4,4.836
81.0,294.5,4.836
85.8,294.7,4.835
92.9,294.9,4.833
116.9,296.1,4.821
140.9,297.6,4.808
164.9,299.3,4.795
188.9,301.1,4.783
212.9,302.9,4.767
236.9,304.7,4.749
260.9,306.4,4.733
284.9,307.9,4.716
308.9,309.4,4.701
332.9,310.6,4.688
356.9,311.7,4.672
380.9,312.6,4.658
404.9,313.4,4.649
428.9,314.0,4.638
452.9,314.6,4.629
476.9,315.0,4.619
500.9,315.3,4.612
524.9,315.6,4.604
548.9,315.8,4.597
572.9,315.9,4.594
596.9,315.9,4.590
620.9,316.0,4.586
644.9,315.9,4.581
668.9,315.9,4.578
692.9,315.8,4.575
716.9,315.7,4.575
740.9,315.6,4.571
764.9,315.4,4.570
788.9,315.3,4.569
812.9,315.1,4.569
836.9,315.0,4.568
860.9,314.8,4.568
884.9,314.7,4.567
908.9,314.5,4.566
932.9,314.4,4.561
956.9,314.2,4.561
980.9,314.1,4.562
1004.9,313.9,4.564
1028.9,313.8,4.565
1052.9,313.7,4.565
1076.9,313.6,4.564
1100.9,313.5,4.561
1124.9,313.5,4.563
1148.9,313.4,4.564
1172.9,313.3,4.562
1196.9,313.2,4.560
1220.9,313.2,4.560
1244.9,313.2,4.559
1268.9,313.1,4.559
1292.9,313.1,4.559
1316.9,313.1,4.559
1340.9,313.0,4.560
1364.9,313.0,4.559
1388.9,313.0,4.561
1412.9,313.0,4.564
1436.9,313.0,4.562
1460.9,313.0,4.562
1484.9,313.0,4.564
1508.9,312.9,4.566
1532.9,312.9,4.567
1556.9,312.9,4.566
1580.9,313.0,4.565
1604.9,313.0,4.565
1628.9,313.0,4.565
1652.9,313.0,4.566
1676.9,313.0,4.565
1700.9,313.0,4.564
1724.9,313.0,4.564
1748.9,313.0,4.566
1772.9,313.0,4.567
1796.9,313.0,4.567
1820.9,313.0,4.567
1844.9,313.0,4.567
1868.9,313.0,4.568
1890.3,313.0,4.570
1892.7,313.0,4.570
1895.1,313.0,4.570
1897.5,313.1,4.570
1899.9,313.0,4.570
1902.3,313.0,4.571
1904.7,313.1,4.571
1907.1,313.0,4.571
1909.5,313.1,4.571
1911.9,313.1,4.571
1914.3,313.1,4.571
1916.7,313.1,4.571
1919.1,313.1,4.571
1921.5,313.1,4.571
1923.9,313.1,4.571
1926.3,313.1,4.571
1928.7,313.1,4.571
1931.1,313.2,4.570
1933.5,313.2,4.570
1935.9,313.2,4.571
1938.3,313.3,4.571
1940.7,313.3,4.571
1943.1,313.3,4.572
1945.5,313.4,4.572
1947.9,313.4,4.573
1950.3,313.5,4.573
1952.7,313.5,4.572
1955.1,313.6,4.571
1957.5,313.6,4.571
1959.9,313.7,4.571
1962.3,313.7,4.571
1964.7,313.8,4.572
1967.1,313.9,4.572
1969.5,314.0,4.571
1971.9,314.0,4.572
1974.3,314.1,4.572
1976.7,314.2,4.572
1979.1,314.3,4.572
1981.5,314.4,4.572
1983.9,314.5,4.573
1986.3,314.6,4.572
1988.7,314.8,4.572
1991.1,314.9,4.572
1993.5,315.0,4.572
1995.9,315.1,4.572
1998.3,315.3,4.572
2000.7,315.4,4.572
2003.1,315.6,4.572
2005.5,315.7,4.572
2007.9,315.9,4.572
2010.3,316.1,4.572
2012.7,316.2,4.572
2015.1,316.4,4.573
2017.5,316.6,4.573
2019.9,316.8,4.573
2022.3,317.0,4.573
2024.7,317.2,4.573
2027.1,317.4,4.574
2029.5,317.6,4.574
2031.9,317.8,4.573
2034.3,318.1,4.573
2036.7,318.3,4.573
2039.1,318.5,4.572
2041.5,318.8,4.572
2043.9,319.1,4.572
2046.3,319.3,4.571
2048.7,319.6,4.570
2051.1,319.9,4.571
2053.5,320.1,4.571
2055.9,320.4,4.571
2058.3,320.7,4.571
2060.7,321.0,4.571
2063.1,321.3,4.571
2065.5,321.6,4.571
2067.9,321.9,4.571
2070.3,322.2,4.570
2072.7,322.5,4.571
2075.1,322.9,4.571
2077.5,323.2,4.570
2079.9,323.5,4.569
2082.3,323.9,4.569
2084.7,324.2,4.569
2087.1,324.6,4.570
2089.5,325.0,4.569
2091.9,325.4,4.570
2094.3,325.7,4.570
2096.7,326.1,4.571
2099.1,326.5,4.570
2101.5,326.9,4.570
2103.9,327.3,4.570
2106.3,327.7,4.570
2108.7,328.1,4.569
2111.1,328.5,4.568
2113.5,328.9,4.568
2115.9,329.3,4.568
2118.3,329.7,4.568
2120.7,330.2,4.568
2123.1,330.6,4.568
2125.5,331.1,4.569
2127.9,331.5,4.568
2130.3,331.9,4.568
2132.7,332.4,4.568
2135.1,332.9,4.568
2137.5,333.3,4.568
2139.9,333.8,4.567
2142.3,334.2,4.567
2144.7,334.7,4.567
2147.1,335.2,4.567
2149.5,335.7,4.567
2151.9,336.2,4.567
2154.3,336.6,4.567
2156.7,337.1,4.566
2159.1,337.6,4.566
2161.5,338.1,4.565
2163.9,338.6,4.565
2166.3,339.1,4.565
2168.7,339.6,4.565
2171.1,340.1,4.565
2173.5,340.6,4.566
2175.9,341.1,4.566
2178.3,341.6,4.565
2180.7,342.2,4.564
2183.1,342.7,4.564
2185.5,343.2,4.563
2187.9,343.7,4.563
2190.3,344.2,4.562
2192.7,344.7,4.562
2195.1,345.3,4.561
2197.5,345.8,4.560
2199.9,346.3,4.560
2202.3,346.9,4.561
2204.7,347.4,4.561
2207.1,347.9,4.561
2209.5,348.4,4.561
2211.9,349.0,4.560
2214.3,349.5,4.560
2216.7,350.0,4.559
2219.1,350.6,4.559
2221.5,351.1,4.558
2223.9,351.6,4.558
2226.3,352.2,4.558
2228.7,352.7,4.557
2231.1,353.3,4.557
2233.5,353.8,4.557
2235.9,354.3,4.556
2238.3,354.9,4.556
2240.7,355.4,4.556
2243.1,356.0,4.555
2245.5,356.5,4.555
2247.9,357.0,4.555
2250.3,357.6,4.555
2252.7,358.1,4.555
2255.1,358.7,4.554
2257.5,359.2,4.554
2259.9,359.7,4.554
2262.3,360.3,4.553
2264.7,360.8,4.553
2267.1,361.4,4.553
2269.5,361.9,4.552
2271.9,362.5,4.552
2274.3,363.0,4.552
2276.7,363.6,4.552
2279.1,364.1,4.551
2281.5,364.7,4.551
2283.9,365.2,4.551
2286.3,365.7,4.551
2288.7,366.3,4.550
2291.1,366.8,4.550
2293.5,367.4,4.550
2295.9,367.9,4.550
2298.3,368.5,4.550
2300.7,369.0,4.550
2303.1,369.5,4.550
2305.5,370.1,4.550
2307.9,370.6,4.550
2310.3,371.2,4.550
2312.7,371.7,4.550
2315.1,372.2,4.550
2317.5,372.8,4.550
2319.9,373.3,4.550
2322.3,373.8,4.550
2324.7,374.4,4.550
2327.1,374.9,4.550
2329.5,375.4,4.550
2331.9,376.0,4.550
2334.3,376.5,4.550
2336.7,377.0,4.550
2339.1,377.6,4.550
2341.5,378.1,4.550
2343.9,378.6,4.550
2346.3,379.1,4.550
2348.7,379.7,4.550
2351.1,380.2,4.550
2353.5,380.7,4.550
2355.9,381.2,4.550
2358.3,381.8,4.550
2360.7,382.3,4.550
2363.1,382.8,4.550
2365.5,383.3,4.550
2367.9,383.8,4.550
2370.3,384.3,4.550
2372.7,384.9,4.550
2375.1,385.4,4.550
2377.5,385.9,4.550
2379.9,386.4,4.550
2382.3,386.9,4.550
2384.7,387.4,4.550
2387.1,387.9,4.550
2389.5,388.4,4.550
2391.9,388.9,4.550
2394.3,389.4,4.550
2396.7,389.9,4.550
2399.1,390.5,4.550
2401.5,390.9,4.550
2403.9,391.4,4.550
2406.3,391.9,4.550
2408.7,392.4,4.550
2411.1,392.9,4.550
2413.5,393.4,4.550
2415.9,393.9,4.550
2418.3,394.4,4.549
2420.7,394.9,4.549
2423.1,395.4,4.549
2425.5,395.9,4.549
2427.9,396.4,4.549
2430.3,396.9,4.549
2432.7,397.4,4.549
2435.1,397.9,4.549
2437.5,398.4,4.549
2439.9,398.9,4.549
2442.3,399.4,4.549
2444.7,399.8,4.549
2447.1,400.4,4.549
2449.5,400.8,4.549
2451.9,401.3,4.549
2454.3,401.8,4.549
2456.7,402.3,4.549
2459.1,402.8,4.549
2461.5,403.3,4.549
2463.9,403.7,4.549
2466.3,404.2,4.549
2468.7,404.7,4.549
2471.1,405.2,4.549
2473.5,405.7,4.549
2475.9,406.1,4.549
2478.3,406.6,4.549
2480.7,407.1,4.549
2483.1,407.6,4.549
2485.5,408.1,4.549
2487.9,408.5,4.549
2490.3,409.0,4.549
2492.7,409.5,4.549
2495.1,410.0,4.549
2497.5,410.4,4.549
2499.9,410.9,4.549
2502.3,411.4,4.549
2504.7,411.8,4.549
2507.1,412.3,4.549
2509.5,412.8,4.548
2511.9,413.3,4.547
2514.3,413.7,4.547
2516.7,414.2,4.547
2519.1,414.7,4.547
2521.5,415.1,4.547
2523.9,415.6,4.547
2526.3,416.1,4.547
2528.7,416.5,4.547
2531.1,417.0,4.547
2533.5,417.4,4.547
2535.9,417.9,4.546
2538.3,418.4,4.546
2540.7,418.8,4.546
2543.1,419.3,4.546
2545.5,419.7,4.546
2547.9,420.2,4.546
2550.3,420.7,4.546
2552.7,421.1,4.545
2555.1,421.6,4.545
2557.5,422.0,4.545
2559.9,422.5,4.545
2562.3,423.0,4.545
2564.7,423.4,4.545
2567.1,423.9,4.545
2569.5,424.3,4.544
2571.9,424.8,4.544
2574.3,425.2,4.544
2576.7,425.7,4.544
2579.1,426.1,4.544
2581.5,426.6,4.544
2583.9,427.0,4.544
2586.3,427.5,4.544
2588.7,427.9,4.543
2591.1,428.4,4.543
2593.5,428.8,4.543
2595.9,429.3,4.542
2598.3,429.7,4.542
2600.7,430.2,4.542
2603.1,430.6,4.542
2605.5,431.0,4.542
2607.9,431.5,4.542
2610.3,431.9,4.541
2612.7,432.4,4.541
2615.1,432.8,4.541
2617.5,433.3,4.540
2619.9,433.7,4.540
2622.3,434.1,4.540
2624.7,434.6,4.539
2627.1,435.0,4.539
2629.5,435.4,4.539
2631.9,435.9,4.539
2634.3,436.3,4.538
2636.7,436.7,4.538
2639.1,437.2,4.538
2641.5,437.6,4.538
2643.9,438.0,4.538
2646.3,438.5,4.538
2648.7,438.9,4.538
2651.1,439.3,4.537
2653.5,439.7,4.537
2655.9,440.2,4.536
2658.3,440.6,4.536
2660.7,441.0,4.534
2663.1,441.5,4.533
2665.5,441.9,4.533
2667.9,442.3,4.532
2670.3,442.8,4.533
2672.7,443.2,4.533
2675.1,443.6,4.533
2677.5,444.0,4.532
2679.9,444.4,4.532
2682.3,444.9,4.531
2684.7,445.3,4.531
2687.1,445.7,4.530
2689.5,446.1,4.530
2691.9,446.5,4.531
2694.3,447.0,4.530
2696.7,447.4,4.530
2699.1,447.8,4.530
2701.5,448.2,4.529
2703.9,448.6,4.529
2706.3,449.1,4.528
2708.7,449.5,4.527
2711.1,449.9,4.527
2713.5,450.3,4.526
2715.9,450.7,4.525
2718.3,451.2,4.524
2720.7,451.6,4.524
2723.1,452.0,4.523
2725.5,452.4,4.522
2727.9,452.8,4.521
2730.3,453.2,4.520
2732.7,453.6,4.519
2735.1,454.0,4.518
2737.5,454.5,4.517
2739.9,454.9,4.517
2742.3,455.3,4.516
2744.7,455.7,4.515
2747.1,456.1,4.515
2749.5,456.5,4.514
2751.9,456.9,4.513
2754.3,457.3,4.512
2756.7,457.8,4.511
2759.1,458.2,4.511
2761.5,458.6,4.510
2763.9,459.0,4.509
2766.3,459.4,4.508
2768.7,459.8,4.507
2771.1,460.2,4.507
2773.5,460.6,4.506
2775.9,461.0,4.505
2778.3,461.4,4.504
2780.7,461.9,4.504
2783.1,462.3,4.503
2785.5,462.7,4.502
2787.9,463.1,4.501
2790.3,463.5,4.501
2792.7,463.9,4.500
2795.1,464.3,4.499
2797.5,464.7,4.498
2799.9,465.1,4.496
2802.3,465.5,4.495
2804.7,465.9,4.494
2807.1,466.3,4.493
2809.5,466.7,4.492
2811.9,467.1,4.491
2814.3,467.5,4.490
2816.7,467.9,4.489
2819.1,468.3,4.487
2821.5,468.8,4.486
2823.9,469.2,4.485
2826.3,469.6,4.483
2828.7,470.0,4.482
2831.1,470.4,4.481
2833.5,470.8,4.480
2835.9,471.2,4.479
2838.3,471.6,4.477
2840.7,472.0,4.476
2843.1,472.4,4.474
2845.5,472.8,4.473
2847.9,473.2,4.472
2850.3,473.6,4.471
2852.7,474.0,4.469
2855.1,474.4,4.468
2857.5,474.8,4.465
2859.9,475.2,4.464
2862.3,475.6,4.463
2864.7,476.0,4.461
2867.1,476.4,4.459
2869.5,476.8,4.458
2871.9,477.2,4.457
2874.3,477.6,4.456
2876.7,478.0,4.455
2879.1,478.4,4.453
2881.5,478.8,4.452
2883.9,479.2,4.451
2886.3,479.6,4.450
2888.7,480.0,4.449
2891.1,480.4,4.448
2893.5,480.8,4.447
2895.9,481.2,4.447
2898.3,481.6,4.446
2900.7,482.0,4.445
2903.1,482.4,4.444
2905.5,482.8,4.443
2907.9,483.2,4.442
2910.3,483.6,4.441
2912.7,484.0,4.440
2915.1,484.4,4.439
2917.5,484.8,4.437
2919.9,485.2,4.436
2922.3,485.6,4.434
2924.7,486.0,4.434
2927.1,486.4,4.433
2929.5,486.8,4.432
2931.9,487.2,4.432
2934.3,487.6,4.431
2936.7,488.0,4.430
2939.1,488.4,4.429
2941.5,488.8,4.428
2943.9,489.2,4.426
2946.3,489.6,4.425
2948.7,490.0,4.424
2951.1,490.4,4.422
2953.5,490.8,4.421
2955.9,491.2,4.418
2958.3,491.6,4.417
2960.7,492.0,4.416
2963.1,492.4,4.414
2965.5,492.8,4.413
2967.9,493.2,4.412
2970.3,493.6,4.410
2972.7,494.0,4.409
2975.1,494.4,4.406
2977.5,494.7,4.405
2979.9,495.2,4.404
2982.3,495.6,4.402
2984.7,496.0,4.401
2987.1,496.3,4.399
2989.5,496.7,4.398
2991.9,497.1,4.396
2994.3,497.5,4.395
2996.7,497.9,4.393
2999.1,498.3,4.391
3001.5,498.7,4.390
3003.9,499.1,4.388
3006.3,499.5,4.386
3008.7,499.9,4.385
3011.1,500.3,4.383
3013.5,500.7,4.382
3015.9,501.1,4.379
3018.3,501.5,4.378
3020.7,501.9,4.376
3023.1,502.3,4.374
3025.5,502.7,4.372
3027.9,503.1,4.369
3030.3,503.5,4.368
3032.7,503.9,4.366
3035.1,504.3,4.364
3037.5,504.7,4.362
3039.9,505.1,4.359
3042.3,505.4,4.357
3044.7,505.8,4.355
3047.1,506.2,4.353
3049.5,506.6,4.351
3051.9,507.0,4.349
3054.3,507.4,4.346
3056.7,507.8,4.344
3059.1,508.2,4.341
3061.5,508.6,4.339
3063.9,509.0,4.337
3066.3,509.4,4.334
3068.7,509.8,4.332
3071.1,510.2,4.330
3073.5,510.6,4.327
3075.9,511.0,4.324
3078.3,511.4,4.322
3080.7,511.8,4.319
3083.1,512.2,4.317
3085.5,512.6,4.314
3087.9,513.0,4.311
3090.3,513.3,4.309
3092.7,513.7,4.305
3095.1,514.1,4.303
3097.5,514.5,4.301
3099.9,514.9,4.297
3102.3,515.3,4.295
3104.7,515.7,4.293
3107.1,516.1,4.289
3109.5,516.5,4.287
3111.9,516.9,4.284
3114.3,517.3,4.281
3116.7,517.7,4.278
3119.1,518.1,4.273
3121.5,518.5,4.272
3123.9,518.9,4.269
3126.3,519.3,4.266
3128.7,519.7,4.263
3131.1,520.1,4.260
3133.5,520.5,4.256
3135.9,520.9,4.253
3138.3,521.2,4.250
3140.7,521.6,4.246
3143.1,522.0,4.242
3145.5,522.4,4.240
3147.9,522.8,4.237
3150.3,523.2,4.234
3152.7,523.6,4.230
3155.1,524.0,4.227
3157.5,524.4,4.223
3159.9,524.8,4.220
3162.3,525.2,4.216
3164.7,525.6,4.213
3167.1,526.0,4.209
3169.5,526.4,4.205
3171.9,526.8,4.202
3174.3,527.2,4.199
3176.7,527.6,4.195
3179.1,528.0,4.190
3181.5,528.4,4.186
3183.9,528.8,4.182
3186.3,529.1,4.177
3188.7,529.5,4.172
3191.1,529.9,4.169
3193.5,530.3,4.165
3195.9,530.7,4.161
3198.3,531.1,4.157
3200.7,531.5,4.153
3203.1,531.9,4.149
3205.5,532.3,4.144
3207.9,532.7,4.140
3210.3,533.1,4.136
3212.7,533.5,4.132
3215.1,533.9,4.127
3217.5,534.3,4.123
3219.9,534.7,4.118
3222.3,535.1,4.114
3224.7,535.5,4.108
3227.1,535.9,4.104
3229.5,536.3,4.100
3231.9,536.6,4.096
3234.3,537.0,4.091
3236.7,537.4,4.087
3239.1,537.8,4.082
3241.5,538.2,4.077
3243.9,538.6,4.072
3246.3,539.0,4.068
3248.7,539.4,4.063
3251.1,539.8,4.058
3253.5,540.2,4.054
3255.9,540.6,4.049
3258.3,541.0,4.045
3260.7,541.4,4.039
3263.1,541.8,4.034
3265.5,542.2,4.029
3267.9,542.5,4.024
3270.3,542.9,4.018
3272.7,543.3,4.012
3275.1,543.7,4.007
3277.5,544.1,4.002
3279.9,544.5,3.998
3282.3,544.9,3.992
3284.7,545.3,3.987
3287.1,545.7,3.982
3289.5,546.1,3.977
3291.9,546.5,3.971
3294.3,546.9,3.966
3296.7,547.3,3.961
3299.1,547.7,3.957
3301.5,548.1,3.952
3303.9,548.5,3.946
3306.3,548.9,3.942
3308.7,549.2,3.937
3311.1,549.6,3.932
3313.5,550.0,3.927
3315.9,550.4,3.921
3318.3,550.8,3.915
3320.7,551.2,3.910
3323.1,551.6,3.904
3325.5,552.0,3.898
3327.9,552.4,3.891
3330.3,552.8,3.885
3332.7,553.2,3.880
3335.1,553.6,3.875
3337.5,554.0,3.869
3339.9,554.4,3.862
3342.3,554.8,3.857
3344.7,555.2,3.851
3347.1,555.6,3.845
3349.5,555.9,3.838
3351.9,556.3,3.832
3354.3,556.7,3.825
3356.7,557.1,3.820
3359.1,557.5,3.814
3361.5,557.9,3.808
3363.9,558.3,3.801
3366.3,558.7,3.795
3368.7,559.1,3.790
3371.1,559.5,3.784
3373.5,559.9,3.779
3375.9,560.3,3.772
3378.3,560.7,3.766
3380.7,561.1,3.760
3383.1,561.5,3.755
3385.5,561.9,3.750
3387.9,562.3,3.744
3390.3,562.7,3.739
3392.7,563.0,3.731
3395.1,563.4,3.727
3397.5,563.8,3.721
3399.9,564.2,3.715
3402.3,564.6,3.709
3404.7,565.0,3.702
3407.1,565.4,3.695
3409.5,565.8,3.688
3411.9,566.2,3.680
3414.3,566.6,3.673
3416.7,567.0,3.666
3419.1,567.4,3.660
3421.5,567.8,3.653
3423.9,568.2,3.647
3426.3,568.6,3.640
3428.7,569.0,3.633
3431.1,569.4,3.626
3433.5,569.8,3.620
3435.9,570.2,3.614
3438.3,570.5,3.607
3440.7,570.9,3.601
3443.1,571.3,3.594
3445.5,571.7,3.585
3447.9,572.1,3.578
3450.3,572.5,3.571
3452.7,572.9,3.563
3455.1,573.3,3.557
3457.5,573.7,3.549
3459.9,574.1,3.543
3462.3,574.5,3.536
3464.7,574.9,3.528
3467.1,575.3,3.521
3469.5,575.7,3.513
3471.9,576.1,3.506
3474.3,576.5,3.499
3476.7,576.8,3.492
3479.1,577.3,3.484
3481.5,577.6,3.476
3483.9,578.0,3.467
3486.3,578.4,3.460
3488.7,578.8,3.452
3491.1,579.2,3.445
3493.5,579.6,3.436
3495.9,580.0,3.427
3498.3,580.4,3.419
3500.7,580.8,3.411
3503.1,581.2,3.403
3505.5,581.6,3.394
3507.9,582.0,3.385
3510.3,582.4,3.377
3512.7,582.8,3.368
3515.1,583.2,3.360
3517.5,583.6,3.351
3519.9,584.0,3.342
3522.3,584.4,3.333
3524.7,584.8,3.324
3527.1,585.1,3.315
3529.5,585.5,3.306
3531.9,585.9,3.297
3534.3,586.3,3.288
3536.7,586.7,3.278
3539.1,587.1,3.268
3541.5,587.5,3.258
3543.9,587.9,3.249
3546.3,588.3,3.239
3548.7,588.7,3.231
3551.1,589.1,3.222
3553.5,589.5,3.212
3555.9,589.9,3.202
3558.3,590.3,3.192
3560.7,590.7,3.182
3563.1,591.1,3.172
3565.5,591.5,3.161
3567.9,591.8,3.152
3570.3,592.3,3.142
3572.7,592.7,3.132
3575.1,593.0,3.123
3577.5,593.4,3.114
3579.9,593.8,3.103
3582.3,594.2,3.093
3584.7,594.6,3.083
3587.1,595.0,3.073
3589.5,595.4,3.063
3591.9,595.8,3.053
3594.3,596.2,3.042
3596.7,596.6,3.031
3599.1,597.0,3.019
3601.5,597.4,3.007
3603.9,597.8,2.995
3606.3,598.2,2.983
3608.7,598.6,2.971
3611.1,599.0,2.959
3613.5,599.4,2.948
3615.9,599.7,2.938
3618.3,600.1,2.929
3620.7,600.5,2.919
3623.1,600.9,2.909
3625.5,601.3,2.898
3627.9,601.7,2.886
3630.3,602.1,2.870
3632.7,602.5,2.855
3635.1,602.9,2.842
3637.5,603.3,2.831
3639.9,603.7,2.820
3642.3,604.1,2.811
3644.7,604.5,2.799
3647.1,604.9,2.788
3649.5,605.3,2.777
3651.9,605.7,2.763
3654.3,606.1,2.751
3656.7,606.5,2.737
3659.1,606.9,2.726
3661.5,607.2,2.713
3663.9,607.6,2.702
3666.3,608.0,2.692
3668.7,608.4,2.681
3671.1,608.8,2.670
3673.5,609.2,2.659
3675.9,609.6,2.648
3678.3,610.0,2.635
3680.7,610.4,2.620
3683.1,610.8,2.606
3685.5,611.2,2.592
3687.9,611.6,2.580
3690.3,612.0,2.569
3692.7,612.4,2.558
3695.1,612.8,2.548
3697.5,613.2,2.536
3699.9,613.5,2.522
3702.3,614.0,2.506
3704.7,614.3,2.492
3707.1,614.7,2.478
3709.5,615.1,2.467
3711.9,615.5,2.457
3714.3,615.9,2.446
3716.7,616.3,2.434
3719.1,616.7,2.423
3721.5,617.1,2.409
3723.9,617.5,2.392
3726.3,617.9,2.377
3728.7,618.3,2.364
3731.1,618.7,2.351
3733.5,619.1,2.341
3735.9,619.5,2.329
3738.3,619.9,2.315
3740.7,620.3,2.301
3743.1,620.7,2.285
3745.5,621.1,2.271
3747.9,621.5,2.258
3750.3,621.8,2.244
3752.7,622.2,2.231
3755.1,622.6,2.216
3757.5,623.0,2.202
3759.9,623.4,2.190
3762.3,623.8,2.175
3764.7,624.2,2.160
3767.1,624.6,2.145
3769.5,625.0,2.130
3771.9,625.4,2.117
3774.3,625.8,2.103
3776.7,626.2,2.088
3779.1,626.6,2.073
3781.5,627.0,2.059
3783.9,627.4,2.044
3786.3,627.8,2.029
3788.7,628.2,2.015
3791.1,628.6,2.000
3793.5,629.0,1.984
3795.9,629.4,1.969
3798.3,629.8,1.954
3800.7,630.2,1.939
3803.1,630.5,1.924
3805.5,631.0,1.909
3807.9,631.3,1.895
3810.3,631.7,1.879
3812.7,632.1,1.863
3815.1,632.5,1.847
3817.5,632.9,1.832
3819.9,633.3,1.816
3822.3,633.7,1.801
3824.7,634.1,1.785
3827.1,634.5,1.769
3829.5,634.9,1.754
3831.9,635.3,1.738
3834.3,635.7,1.722
3836.7,636.1,1.707
3839.1,636.5,1.691
3841.5,636.9,1.676
3843.9,637.3,1.660
3846.3,637.6,1.644
3848.7,638.1,1.629
3851.1,638.4,1.614
3853.5,638.8,1.600
3855.9,639.3,1.585
3858.3,639.6,1.569
3860.7,640.0,1.556
3863.1,640.4,1.542
3865.5,640.8,1.527
3867.9,641.2,1.513
3870.3,641.6,1.497
3872.7,642.0,1.484
3875.1,642.4,1.472
3877.5,642.8,1.460
3879.9,643.2,1.447
3882.3,643.6,1.435
3884.7,644.0,1.422
3887.1,644.4,1.411
3889.5,644.8,1.399
3891.9,645.2,1.388
3894.3,645.6,1.378
3896.7,646.0,1.369
3899.1,646.4,1.360
3901.5,646.8,1.351
3903.9,647.2,1.342
3906.3,647.6,1.333
3908.7,647.9,1.325
3911.1,648.3,1.316
3913.5,648.7,1.309
3915.9,649.1,1.302
3918.3,649.5,1.295
3920.7,649.9,1.289
3923.1,650.3,1.283
3925.5,650.7,1.277
3927.9,651.1,1.271
3930.3,651.5,1.264
3932.7,651.9,1.259
3935.1,652.3,1.255
3937.5,652.7,1.250
3939.9,653.1,1.247
3942.3,653.5,1.242
3944.7,653.9,1.238
3947.1,654.3,1.236
3949.5,654.7,1.232
3951.9,655.1,1.229
3954.3,655.5,1.226
3956.7,655.9,1.225
3959.1,656.3,1.223
3961.5,656.7,1.220
3963.9,657.1,1.218
3966.3,657.5,1.217
3968.7,657.9,1.215
3971.1,658.3,1.214
3973.5,658.7,1.211
3975.9,659.1,1.210
3978.3,659.5,1.209
3980.7,659.9,1.207
3983.1,660.3,1.205
3985.5,660.7,1.204
3987.9,661.1,1.203
3990.3,661.5,1.201
3992.7,661.8,1.200
3995.1,662.2,1.198
3997.5,662.7,1.196
3999.9,663.0,1.195
4002.3,663.4,1.194
4004.7,663.8,1.192
4007.1,664.2,1.190
4009.5,664.6,1.189
4011.9,665.0,1.188
4014.3,665.4,1.186
4016.7,665.8,1.185
4019.1,666.2,1.184
4021.5,666.6,1.183
4023.9,667.0,1.182
4026.3,667.4,1.180
4028.7,667.8,1.179
4031.1,668.2,1.179
4033.5,668.6,1.179
4035.9,669.0,1.178
4038.3,669.4,1.177
4040.7,669.8,1.176
4043.1,670.2,1.175
4045.5,670.6,1.174
4047.9,671.0,1.173
4050.3,671.4,1.172
4052.7,671.8,1.171
4055.1,672.2,1.170
4057.5,672.6,1.169
4059.9,673.0,1.167
4062.3,673.4,1.166
4064.7,673.7,1.165
4067.1,674.2,1.164
4069.5,674.6,1.164
4071.9,674.9,1.163
4074.3,675.3,1.163
4076.7,675.7,1.161
4079.1,676.1,1.160
4081.5,676.5,1.159
4083.9,676.9,1.158
4086.3,677.3,1.157
4088.7,677.7,1.156
4091.1,678.1,1.155
4093.5,678.5,1.152
4095.9,678.9,1.152
4098.3,679.3,1.151
4100.7,679.7,1.150
4103.1,680.1,1.149
4105.5,680.5,1.148
4107.9,680.9,1.147
4110.3,681.3,1.145
4112.7,681.7,1.145
4115.1,682.1,1.144
4117.5,682.5,1.143
4119.9,682.9,1.142
4122.3,683.3,1.140
4124.7,683.7,1.139
4127.1,684.1,1.138
4129.5,684.5,1.137
4131.9,684.9,1.135
4134.3,685.3,1.134
4136.7,685.7,1.133
4139.1,686.0,1.132
4141.5,686.4,1.131
4143.9,686.8,1.130
4146.3,687.2,1.129
4148.7,687.6,1.127
4151.1,688.0,1.127
4153.5,688.4,1.126
4155.9,688.8,1.125
4158.3,689.2,1.123
4160.7,689.6,1.122
4163.1,690.0,1.121
4165.5,690.4,1.119
4167.9,690.8,1.118
4170.3,691.2,1.117
4172.7,691.6,1.116
4175.1,692.0,1.114
4177.5,692.4,1.114
4179.9,692.8,1.113
4182.3,693.2,1.112
4184.7,693.6,1.110
4187.1,694.0,1.109
4189.5,694.4,1.108
4191.9,694.8,1.108
4194.3,695.2,1.106
