Temp,time,TGA,DSC,Sensitivity,Heating Rate,Heat Capacity
[K],[s],[mg],[uV/mg],[mW/uV],[K/s],[J/g/K]
322.1,0.0,3.9605,-3.63E-03,2.861,0.005,-2.21
322.2,21.3,3.9586,1.78E-03,2.269,0.008,0.52
322.3,25.8,3.9588,7.48E-03,2.059,0.026,0.59
322.4,28.9,3.9588,1.70E-02,2.129,0.037,0.97
322.5,31.2,3.9576,2.27E-02,2.123,0.048,1.01
322.6,33.1,3.9567,2.54E-02,2.008,0.054,0.95
322.7,34.9,3.9572,3.25E-02,1.988,0.058,1.11
322.8,36.5,3.9586,3.88E-02,1.927,0.062,1.20
322.9,38.1,3.9588,4.33E-02,1.834,0.067,1.19
323.0,39.5,3.9583,4.77E-02,1.793,0.073,1.17
323.1,40.9,3.9581,5.58E-02,1.764,0.078,1.26
323.2,42.1,3.9585,6.10E-02,1.736,0.082,1.29
323.3,43.3,3.9586,6.66E-02,1.715,0.087,1.31
323.4,44.4,3.9581,7.21E-02,1.680,0.091,1.33
323.5,45.5,3.9573,7.69E-02,1.642,0.096,1.32
323.6,46.5,3.9578,7.96E-02,1.639,0.100,1.31
323.7,47.5,3.9577,8.67E-02,1.627,0.104,1.36
323.8,48.4,3.9577,8.92E-02,1.586,0.108,1.31
323.9,49.3,3.9574,9.45E-02,1.568,0.111,1.33
324.0,50.2,3.9576,0.10007,1.528,0.112,1.36
324.1,51.1,3.9575,0.10575,1.505,0.115,1.39
324.2,52.0,3.9576,0.10947,1.494,0.119,1.38
324.3,52.8,3.9578,0.11528,1.490,0.123,1.40
324.4,53.6,3.9582,0.11925,1.485,0.126,1.41
324.5,54.4,3.9581,0.12374,1.460,0.128,1.41
324.6,55.2,3.9575,0.12599,1.452,0.130,1.41
324.7,55.9,3.9572,0.13233,1.438,0.133,1.44
324.8,56.7,3.9566,0.13787,1.429,0.138,1.43
324.9,57.4,3.9562,0.1405,1.412,0.143,1.39
325.0,58.1,3.9573,0.14317,1.406,0.144,1.39
325.1,58.8,3.9574,0.1485,1.398,0.146,1.43
325.2,59.4,3.9587,0.15179,1.400,0.149,1.43
325.3,60.1,3.9594,0.15461,1.380,0.152,1.40
325.4,60.8,3.9597,0.16061,1.371,0.155,1.42
325.5,61.4,3.9596,0.16568,1.356,0.158,1.42
325.6,62.0,3.9590,0.16827,1.338,0.160,1.41
325.7,62.6,3.9583,0.17209,1.334,0.163,1.41
325.8,63.3,3.9578,0.17628,1.333,0.165,1.43
325.9,63.9,3.9576,0.17924,1.329,0.166,1.43
326.0,64.5,3.9571,0.182,1.319,0.170,1.41
326.1,65.0,3.9565,0.18631,1.308,0.173,1.41
326.2,65.6,3.9562,0.19006,1.295,0.174,1.42
326.3,66.2,3.9561,0.19331,1.287,0.175,1.43
326.4,66.8,3.9563,0.19665,1.288,0.178,1.42
326.5,67.3,3.9561,0.2013,1.275,0.179,1.43
326.6,67.9,3.9565,0.20345,1.265,0.181,1.42
326.7,68.4,3.9560,0.20873,1.268,0.184,1.44
326.8,69.0,3.9566,0.21049,1.266,0.185,1.44
326.9,69.5,3.9562,0.21607,1.258,0.186,1.46
327.0,70.0,3.9567,0.21889,1.242,0.188,1.45
327.1,70.6,3.9566,0.21883,1.235,0.189,1.43
327.2,71.1,3.9566,0.2204,1.243,0.191,1.43
327.3,71.6,3.9567,0.22431,1.240,0.193,1.44
327.4,72.1,3.9565,0.2282,1.224,0.197,1.42
327.5,72.6,3.9570,0.23161,1.224,0.199,1.43
327.6,73.1,3.9567,0.23556,1.222,0.197,1.46
327.7,73.6,3.9570,0.23541,1.207,0.199,1.43
327.8,74.1,3.9567,0.23913,1.205,0.201,1.43
327.9,74.6,3.9565,0.24354,1.210,0.202,1.46
328.0,75.1,3.9567,0.24574,1.210,0.204,1.46
328.1,75.6,3.9562,0.24945,1.202,0.207,1.45
328.2,76.1,3.9569,0.25116,1.194,0.209,1.43
328.3,76.6,3.9568,0.25147,1.202,0.211,1.43
328.4,77.0,3.9566,0.25406,1.208,0.212,1.45
328.5,77.5,3.9570,0.25795,1.198,0.212,1.46
328.6,78.0,3.9574,0.26019,1.190,0.213,1.45
328.7,78.5,3.9572,0.26319,1.195,0.215,1.46
328.8,78.9,3.9579,0.26552,1.197,0.216,1.47
328.9,79.4,3.9580,0.26775,1.183,0.218,1.46
329.0,79.8,3.9574,0.27014,1.169,0.221,1.43
329.1,80.3,3.9583,0.27145,1.175,0.222,1.44
329.2,80.7,3.9574,0.27407,1.184,0.222,1.46
329.3,81.2,3.9573,0.2771,1.174,0.224,1.45
329.4,81.6,3.9583,0.2798,1.152,0.225,1.43
329.5,82.1,3.9567,0.28317,1.147,0.225,1.44
329.6,82.5,3.9569,0.28545,1.158,0.226,1.46
329.7,83.0,3.9572,0.28757,1.155,0.227,1.46
329.8,83.4,3.9563,0.29087,1.140,0.228,1.45
329.9,83.8,3.9572,0.29431,1.131,0.230,1.44
330.0,84.3,3.9572,0.2953,1.132,0.233,1.44
330.1,84.7,3.9567,0.29576,1.134,0.231,1.45
330.2,85.1,3.9573,0.29829,1.126,0.231,1.45
330.3,85.6,3.9570,0.30043,1.116,0.234,1.43
330.4,86.0,3.9566,0.30215,1.116,0.237,1.42
330.5,86.4,3.9569,0.30408,1.126,0.237,1.44
330.6,86.8,3.9569,0.30628,1.125,0.239,1.44
330.7,87.2,3.9565,0.30896,1.110,0.241,1.42
330.8,87.7,3.9566,0.3114,1.106,0.240,1.44
330.9,88.1,3.9573,0.31303,1.116,0.240,1.46
331.0,88.5,3.9568,0.31556,1.117,0.244,1.44
331.1,88.9,3.9563,0.31846,1.106,0.244,1.44
331.2,89.3,3.9570,0.32064,1.104,0.243,1.46
331.3,89.7,3.9571,0.32262,1.122,0.245,1.48
331.4,90.1,3.9567,0.32412,1.135,0.247,1.49
331.5,90.5,3.9566,0.32536,1.132,0.247,1.49
331.6,90.9,3.9572,0.32764,1.124,0.248,1.48
331.7,91.3,3.9572,0.3296,1.103,0.250,1.46
331.8,91.7,3.9564,0.33089,1.085,0.250,1.44
331.9,92.1,3.9570,0.33365,1.093,0.249,1.46
332.0,92.5,3.9573,0.33597,1.101,0.249,1.48
332.1,92.9,3.9566,0.33693,1.093,0.250,1.47
332.2,93.3,3.9569,0.3389,1.084,0.251,1.47
332.3,93.7,3.9574,0.34101,1.082,0.251,1.47
332.4,94.1,3.9571,0.34285,1.082,0.253,1.47
332.5,94.5,3.9567,0.34591,1.076,0.255,1.46
332.6,94.9,3.9570,0.34758,1.072,0.255,1.46
332.7,95.3,3.9576,0.34702,1.074,0.256,1.46
332.8,95.7,3.9571,0.34835,1.071,0.258,1.45
332.9,96.1,3.9568,0.35084,1.058,0.258,1.44
333.0,96.5,3.9578,0.35274,1.047,0.258,1.43
333.1,96.9,3.9579,0.35506,1.043,0.259,1.43
333.2,97.3,3.9573,0.35749,1.043,0.260,1.44
333.3,97.6,3.9571,0.35924,1.049,0.261,1.45
333.4,98.0,3.9579,0.36074,1.063,0.262,1.46
333.5,98.4,3.9585,0.36237,1.069,0.262,1.48
333.6,98.8,3.9577,0.36412,1.062,0.263,1.47
333.7,99.2,3.9575,0.36562,1.058,0.264,1.46
333.8,99.5,3.9585,0.36677,1.059,0.266,1.46
333.9,99.9,3.9584,0.36787,1.056,0.268,1.45
334.0,100.3,3.9579,0.36889,1.054,0.268,1.45
334.1,100.7,3.9580,0.37016,1.057,0.268,1.46
334.2,101.0,3.9582,0.37285,1.062,0.269,1.47
334.3,101.4,3.9582,0.37577,1.059,0.269,1.48
334.4,101.8,3.9576,0.37708,1.052,0.269,1.47
334.5,102.1,3.9573,0.37866,1.053,0.271,1.47
334.6,102.5,3.9576,0.38094,1.056,0.272,1.48
334.7,102.9,3.9577,0.3817,1.051,0.272,1.47
334.8,103.3,3.9576,0.38247,1.044,0.272,1.47
334.9,103.6,3.9573,0.38499,1.043,0.272,1.48
335.0,104.0,3.9571,0.3866,1.043,0.273,1.48
335.1,104.4,3.9569,0.38708,1.042,0.274,1.47
335.2,104.7,3.9567,0.38875,1.041,0.275,1.47
335.3,105.1,3.9567,0.39056,1.040,0.276,1.47
335.4,105.4,3.9571,0.39146,1.041,0.277,1.47
335.5,105.8,3.9568,0.39305,1.039,0.278,1.47
335.6,106.2,3.9563,0.39538,1.036,0.278,1.47
335.7,106.5,3.9569,0.3972,1.038,0.276,1.49
335.8,106.9,3.9573,0.39863,1.040,0.275,1.51
335.9,107.2,3.9568,0.39989,1.035,0.276,1.50
336.0,107.6,3.9564,0.40035,1.029,0.278,1.48
336.1,108.0,3.9567,0.40054,1.027,0.278,1.48
336.2,108.3,3.9572,0.4017,1.027,0.278,1.48
336.3,108.7,3.9572,0.40354,1.025,0.279,1.48
336.4,109.0,3.9566,0.40525,1.023,0.279,1.48
336.5,109.4,3.9566,0.40613,1.027,0.280,1.49
336.6,109.8,3.9574,0.40678,1.027,0.281,1.49
336.7,110.1,3.9575,0.40854,1.018,0.283,1.47
336.8,110.5,3.9569,0.4113,1.014,0.282,1.48
336.9,110.8,3.9560,0.414,1.015,0.281,1.49
337.0,111.2,3.9559,0.41486,1.014,0.281,1.50
337.1,111.5,3.9567,0.4145,1.011,0.282,1.49
337.2,111.9,3.9572,0.4155,1.011,0.283,1.48
337.3,112.2,3.9569,0.41672,1.009,0.283,1.49
337.4,112.6,3.9560,0.41678,1.004,0.283,1.48
337.5,112.9,3.9559,0.41812,0.999,0.284,1.47
337.6,113.3,3.9566,0.42109,0.998,0.286,1.47
337.7,113.6,3.9573,0.42299,1.002,0.287,1.48
337.8,114.0,3.9573,0.42391,1.007,0.287,1.49
337.9,114.3,3.9568,0.42516,1.006,0.287,1.49
338.0,114.7,3.9567,0.42625,1.002,0.288,1.48
338.1,115.0,3.9572,0.42663,1.001,0.289,1.48
338.2,115.4,3.9575,0.42647,1.004,0.289,1.48
338.3,115.7,3.9574,0.42686,1.004,0.289,1.48
338.4,116.1,3.9576,0.42921,1.001,0.290,1.48
338.5,116.4,3.9578,0.43166,1.003,0.290,1.49
338.6,116.8,3.9577,0.43204,1.008,0.290,1.50
338.7,117.1,3.9575,0.43205,1.005,0.291,1.49
338.8,117.5,3.9575,0.43255,1.001,0.292,1.48
338.9,117.8,3.9577,0.43207,1.006,0.292,1.49
339.0,118.1,3.9579,0.43173,1.005,0.292,1.49
339.1,118.5,3.9578,0.43431,0.997,0.292,1.48
339.2,118.8,3.9576,0.43768,0.995,0.293,1.49
339.3,119.2,3.9576,0.43888,0.999,0.293,1.50
339.4,119.5,3.9576,0.4391,0.998,0.292,1.50
339.5,119.9,3.9574,0.43954,0.992,0.292,1.49
339.6,120.2,3.9572,0.44014,0.987,0.293,1.48
339.7,120.5,3.9573,0.44119,0.986,0.293,1.48
339.8,120.9,3.9575,0.44317,0.987,0.293,1.49
339.9,121.2,3.9577,0.44501,0.987,0.295,1.49
340.0,121.6,3.9578,0.44562,0.989,0.297,1.48
340.1,121.9,3.9577,0.44644,0.992,0.299,1.48
340.2,122.2,3.9575,0.44839,0.990,0.300,1.48
340.3,122.6,3.9574,0.4504,0.984,0.298,1.49
340.4,122.9,3.9575,0.45156,0.981,0.296,1.50
340.5,123.2,3.9576,0.45142,0.984,0.295,1.51
340.6,123.6,3.9573,0.45137,0.984,0.296,1.50
340.7,123.9,3.9564,0.45317,0.981,0.297,1.50
340.8,124.2,3.9557,0.45479,0.980,0.297,1.50
340.9,124.6,3.9557,0.45439,0.979,0.298,1.49
341.0,124.9,3.9557,0.45393,0.976,0.300,1.48
341.1,125.2,3.9553,0.45508,0.974,0.300,1.48
341.2,125.6,3.9552,0.45805,0.975,0.298,1.50
341.3,125.9,3.9553,0.46117,0.977,0.299,1.51
341.4,126.3,3.9554,0.46168,0.979,0.301,1.50
341.5,126.6,3.9553,0.46101,0.981,0.300,1.51
341.6,126.9,3.9553,0.46195,0.981,0.299,1.51
341.7,127.3,3.9554,0.46351,0.973,0.299,1.51
341.8,127.6,3.9555,0.46434,0.969,0.300,1.50
341.9,127.9,3.9556,0.46482,0.973,0.298,1.52
342.0,128.3,3.9555,0.46551,0.976,0.294,1.54
342.1,128.6,3.9557,0.46683,0.971,0.293,1.55
342.2,128.9,3.9561,0.46815,0.969,0.296,1.54
342.3,129.3,3.9567,0.46828,0.972,0.300,1.52
342.4,129.6,3.9571,0.4675,0.969,0.303,1.50
342.5,129.9,3.9568,0.46686,0.965,0.302,1.49
342.6,130.3,3.9563,0.46767,0.966,0.302,1.50
342.7,130.6,3.9561,0.47017,0.968,0.302,1.51
342.8,130.9,3.9564,0.47202,0.969,0.302,1.51
342.9,131.3,3.9570,0.47239,0.968,0.302,1.51
343.0,131.6,3.9570,0.47281,0.965,0.302,1.51
343.1,131.9,3.9566,0.47353,0.965,0.302,1.51
343.2,132.3,3.9561,0.47376,0.967,0.303,1.51
343.3,132.6,3.9558,0.47433,0.965,0.302,1.52
343.4,132.9,3.9556,0.47627,0.959,0.301,1.52
343.5,133.2,3.9558,0.47798,0.955,0.302,1.51
343.6,133.6,3.9564,0.47813,0.956,0.304,1.50
343.7,133.9,3.9569,0.47811,0.962,0.304,1.51
343.8,134.2,3.9570,0.47893,0.963,0.304,1.52
343.9,134.6,3.9571,0.48024,0.957,0.305,1.51
344.0,134.9,3.9572,0.48163,0.956,0.306,1.50
344.1,135.2,3.9568,0.48271,0.960,0.307,1.51
344.2,135.5,3.9562,0.48333,0.957,0.305,1.52
344.3,135.9,3.9558,0.48349,0.952,0.303,1.52
344.4,136.2,3.9558,0.48358,0.955,0.304,1.52
344.5,136.5,3.9558,0.48413,0.958,0.305,1.52
344.6,136.9,3.9562,0.48565,0.956,0.305,1.52
344.7,137.2,3.9568,0.48788,0.951,0.304,1.53
344.8,137.5,3.9573,0.48876,0.948,0.304,1.52
344.9,137.8,3.9573,0.48805,0.952,0.305,1.53
345.0,138.2,3.9571,0.4885,0.959,0.306,1.53
345.1,138.5,3.9567,0.49025,0.959,0.306,1.54
345.2,138.8,3.9562,0.4909,0.957,0.307,1.53
345.3,139.1,3.9559,0.49051,0.958,0.308,1.52
345.4,139.5,3.9562,0.49054,0.958,0.308,1.52
345.5,139.8,3.9569,0.49159,0.956,0.307,1.53
345.6,140.1,3.9572,0.49362,0.952,0.307,1.53
345.7,140.4,3.9572,0.49544,0.950,0.308,1.53
345.8,140.8,3.9571,0.49608,0.949,0.308,1.53
345.9,141.1,3.9567,0.49591,0.947,0.307,1.53
346.0,141.4,3.9561,0.49559,0.947,0.306,1.53
346.1,141.8,3.9556,0.49585,0.947,0.306,1.53
346.2,142.1,3.9556,0.49667,0.950,0.307,1.54
346.3,142.4,3.9561,0.49732,0.954,0.309,1.54
346.4,142.7,3.9567,0.49803,0.956,0.309,1.54
346.5,143.0,3.9568,0.49957,0.958,0.309,1.55
346.6,143.4,3.9565,0.50142,0.961,0.308,1.56
346.7,143.7,3.9560,0.5026,0.966,0.308,1.57
346.8,144.0,3.9556,0.5031,0.970,0.309,1.58
346.9,144.3,3.9556,0.50331,0.971,0.309,1.58
347.0,144.7,3.9557,0.50382,0.962,0.309,1.57
347.1,145.0,3.9558,0.50475,0.948,0.308,1.55
347.2,145.3,3.9555,0.50527,0.938,0.308,1.54
347.3,145.6,3.9551,0.50539,0.939,0.309,1.53
347.4,146.0,3.9551,0.50656,0.948,0.310,1.55
347.5,146.3,3.9555,0.5086,0.952,0.311,1.56
347.6,146.6,3.9558,0.50981,0.948,0.310,1.56
347.7,146.9,3.9557,0.50985,0.945,0.310,1.55
347.8,147.3,3.9556,0.50941,0.943,0.311,1.55
347.9,147.6,3.9556,0.50935,0.938,0.311,1.54
348.0,147.9,3.9561,0.51033,0.935,0.312,1.53
348.1,148.2,3.9568,0.51154,0.937,0.311,1.54
348.2,148.5,3.9572,0.51211,0.937,0.311,1.54
348.3,148.9,3.9572,0.51256,0.932,0.311,1.54
348.4,149.2,3.9569,0.51353,0.930,0.311,1.54
348.5,149.5,3.9564,0.51513,0.929,0.311,1.54
348.6,149.8,3.9560,0.51701,0.925,0.311,1.54
348.7,150.1,3.9559,0.5182,0.920,0.310,1.54
348.8,150.5,3.9563,0.51825,0.917,0.310,1.53
348.9,150.8,3.9568,0.51746,0.919,0.310,1.53
349.0,151.1,3.9571,0.51704,0.923,0.310,1.54
349.1,151.4,3.9573,0.51854,0.931,0.311,1.55
349.2,151.8,3.9572,0.52039,0.940,0.311,1.57
349.3,152.1,3.9571,0.51997,0.941,0.311,1.57
349.4,152.4,3.9569,0.51876,0.930,0.310,1.56
349.5,152.7,3.9563,0.51904,0.923,0.309,1.55
349.6,153.0,3.9559,0.52056,0.925,0.311,1.55
349.7,153.4,3.9559,0.52234,0.929,0.312,1.55
349.8,153.7,3.9564,0.52327,0.933,0.311,1.57
349.9,154.0,3.9570,0.52319,0.939,0.310,1.58
350.0,154.3,3.9573,0.52377,0.943,0.310,1.59
350.1,154.7,3.9572,0.52528,0.939,0.311,1.58
350.2,155.0,3.9572,0.52616,0.932,0.312,1.57
350.3,155.3,3.9572,0.5261,0.935,0.312,1.58
350.4,155.6,3.9570,0.52597,0.938,0.310,1.59
350.5,155.9,3.9566,0.52641,0.934,0.310,1.58
350.6,156.3,3.9562,0.52782,0.932,0.312,1.58
350.7,156.6,3.9559,0.52957,0.933,0.313,1.58
350.8,156.9,3.9559,0.53091,0.933,0.313,1.58
350.9,157.2,3.9562,0.53225,0.932,0.314,1.58
351.0,157.5,3.9568,0.53387,0.930,0.314,1.58
351.1,157.9,3.9572,0.53438,0.928,0.312,1.59
351.2,158.2,3.9573,0.53316,0.928,0.312,1.59
351.3,158.5,3.9572,0.5322,0.929,0.313,1.58
351.4,158.8,3.9572,0.53261,0.930,0.315,1.57
351.5,159.1,3.9572,0.53344,0.931,0.316,1.57
351.6,159.5,3.9571,0.53421,0.931,0.314,1.58
351.7,159.8,3.9566,0.5352,0.930,0.312,1.59
351.8,160.1,3.9560,0.53617,0.930,0.312,1.60
351.9,160.4,3.9560,0.53643,0.930,0.313,1.59
352.0,160.7,3.9564,0.53658,0.928,0.314,1.59
352.1,161.0,3.9569,0.53777,0.925,0.315,1.58
352.2,161.4,3.9572,0.53914,0.924,0.314,1.59
352.3,161.7,3.9573,0.53926,0.924,0.313,1.59
352.4,162.0,3.9572,0.53883,0.925,0.316,1.58
352.5,162.3,3.9567,0.5391,0.927,0.318,1.57
352.6,162.6,3.9562,0.54061,0.928,0.317,1.58
352.7,163.0,3.9559,0.54311,0.928,0.316,1.59
352.8,163.3,3.9558,0.54446,0.927,0.315,1.60
352.9,163.6,3.9558,0.54367,0.925,0.315,1.60
353.0,163.9,3.9557,0.54298,0.924,0.315,1.59
353.1,164.2,3.9557,0.54362,0.926,0.316,1.59
353.2,164.5,3.9559,0.54457,0.928,0.318,1.59
353.3,164.8,3.9564,0.54511,0.926,0.318,1.59
353.4,165.2,3.9563,0.54504,0.923,0.317,1.59
353.5,165.5,3.9559,0.54494,0.924,0.316,1.59
353.6,165.8,3.9557,0.54591,0.927,0.317,1.60
353.7,166.1,3.9557,0.54726,0.928,0.317,1.60
353.8,166.4,3.9558,0.54733,0.928,0.316,1.61
353.9,166.7,3.9558,0.54699,0.925,0.316,1.60
354.0,167.1,3.9558,0.54817,0.920,0.316,1.60
354.1,167.4,3.9558,0.55019,0.919,0.316,1.60
354.2,167.7,3.9558,0.55157,0.923,0.317,1.60
354.3,168.0,3.9561,0.55224,0.927,0.317,1.61
354.4,168.3,3.9566,0.55244,0.925,0.317,1.61
354.5,168.6,3.9567,0.55216,0.919,0.316,1.61
354.6,169.0,3.9562,0.55155,0.917,0.315,1.61
354.7,169.3,3.9557,0.55157,0.919,0.314,1.61
354.8,169.6,3.9557,0.55261,0.920,0.315,1.61
354.9,169.9,3.9558,0.55369,0.921,0.316,1.61
355.0,170.2,3.9557,0.55428,0.922,0.317,1.61
355.1,170.5,3.9559,0.55471,0.923,0.318,1.61
355.2,170.9,3.9562,0.55504,0.924,0.318,1.61
355.3,171.2,3.9567,0.55503,0.921,0.317,1.61
355.4,171.5,3.9570,0.55458,0.914,0.317,1.60
355.5,171.8,3.9571,0.55383,0.910,0.318,1.59
355.6,172.1,3.9571,0.55369,0.911,0.319,1.58
355.7,172.4,3.9571,0.55533,0.916,0.320,1.59
355.8,172.7,3.9571,0.55751,0.919,0.320,1.60
355.9,173.1,3.9571,0.55797,0.918,0.320,1.60
356.0,173.4,3.9571,0.55695,0.915,0.319,1.60
356.1,173.7,3.9570,0.55572,0.916,0.319,1.60
356.2,174.0,3.9568,0.55509,0.920,0.318,1.60
356.3,174.3,3.9562,0.55545,0.921,0.318,1.61
356.4,174.6,3.9556,0.55586,0.920,0.318,1.61
356.5,174.9,3.9555,0.55553,0.921,0.318,1.61
356.6,175.3,3.9557,0.5553,0.921,0.318,1.61
356.7,175.6,3.9560,0.5558,0.922,0.318,1.61
356.8,175.9,3.9564,0.55632,0.922,0.319,1.61
356.9,176.2,3.9568,0.55641,0.922,0.319,1.61
357.0,176.5,3.9570,0.55648,0.920,0.319,1.60
357.1,176.8,3.9571,0.55667,0.920,0.319,1.61
357.2,177.1,3.9569,0.55644,0.919,0.317,1.61
357.3,177.5,3.9565,0.5557,0.916,0.316,1.61
357.4,177.8,3.9561,0.55487,0.918,0.317,1.61
357.5,178.1,3.9557,0.55464,0.924,0.318,1.61
357.6,178.4,3.9556,0.55578,0.927,0.317,1.62
357.7,178.7,3.9556,0.55735,0.925,0.317,1.63
357.8,179.0,3.9557,0.55743,0.921,0.317,1.62
357.9,179.3,3.9557,0.55641,0.919,0.318,1.61
358.0,179.7,3.9557,0.55581,0.918,0.320,1.60
358.1,180.0,3.9557,0.55552,0.918,0.319,1.60
358.2,180.3,3.9557,0.55486,0.920,0.319,1.60
358.3,180.6,3.9560,0.55396,0.921,0.319,1.60
358.4,180.9,3.9565,0.55325,0.917,0.319,1.59
358.5,181.2,3.9570,0.55321,0.914,0.319,1.58
358.6,181.5,3.9571,0.55397,0.917,0.319,1.59
358.7,181.8,3.9570,0.55455,0.919,0.319,1.60
358.8,182.2,3.9569,0.55429,0.918,0.319,1.59
358.9,182.5,3.9565,0.55388,0.918,0.321,1.59
359.0,182.8,3.9560,0.5538,0.919,0.322,1.58
359.1,183.1,3.9556,0.55369,0.918,0.321,1.58
359.2,183.4,3.9557,0.55348,0.915,0.321,1.58
359.3,183.7,3.9562,0.55376,0.915,0.321,1.58
359.4,184.0,3.9568,0.55447,0.919,0.322,1.58
359.5,184.3,3.9571,0.55469,0.922,0.323,1.58
359.6,184.6,3.9570,0.55407,0.921,0.323,1.58
359.7,185.0,3.9570,0.55297,0.918,0.322,1.58
359.8,185.3,3.9570,0.55201,0.919,0.322,1.58
359.9,185.6,3.9570,0.55193,0.920,0.322,1.58
360.0,185.9,3.9570,0.55237,0.922,0.321,1.59
360.1,186.2,3.9570,0.55216,0.924,0.321,1.59
360.2,186.5,3.9570,0.55131,0.922,0.320,1.59
360.3,186.8,3.9570,0.55056,0.920,0.321,1.58
360.4,187.1,3.9570,0.55016,0.921,0.322,1.57
360.5,187.4,3.9570,0.55008,0.922,0.323,1.57
360.6,187.8,3.9570,0.55042,0.921,0.323,1.57
360.7,188.1,3.9569,0.5512,0.917,0.323,1.56
360.8,188.4,3.9567,0.55166,0.913,0.323,1.56
360.9,188.7,3.9561,0.55105,0.914,0.322,1.57
361.0,189.0,3.9557,0.55012,0.918,0.321,1.57
361.1,189.3,3.9556,0.54977,0.918,0.320,1.58
361.2,189.6,3.9557,0.54951,0.918,0.320,1.58
361.3,189.9,3.9557,0.54888,0.920,0.321,1.57
361.4,190.2,3.9557,0.54861,0.921,0.321,1.57
361.5,190.6,3.9557,0.54919,0.918,0.321,1.57
361.6,190.9,3.9556,0.54984,0.916,0.321,1.57
361.7,191.2,3.9551,0.54995,0.918,0.321,1.58
361.8,191.5,3.9545,0.5496,0.919,0.321,1.57
361.9,191.8,3.9543,0.54905,0.917,0.323,1.56
362.0,192.1,3.9545,0.54869,0.915,0.325,1.55
362.1,192.4,3.9550,0.54875,0.915,0.324,1.55
362.2,192.7,3.9555,0.54921,0.917,0.322,1.56
362.3,193.0,3.9557,0.54972,0.918,0.322,1.57
362.4,193.4,3.9555,0.54952,0.916,0.323,1.56
362.5,193.7,3.9549,0.54887,0.912,0.323,1.55
362.6,194.0,3.9545,0.54903,0.910,0.323,1.55
362.7,194.3,3.9544,0.54998,0.912,0.323,1.55
362.8,194.6,3.9544,0.55058,0.918,0.324,1.56
362.9,194.9,3.9544,0.55047,0.923,0.325,1.56
363.0,195.2,3.9543,0.54988,0.920,0.325,1.56
363.1,195.5,3.9543,0.54904,0.917,0.325,1.55
363.2,195.8,3.9547,0.54818,0.918,0.325,1.55
363.3,196.1,3.9552,0.54791,0.921,0.324,1.56
363.4,196.4,3.9555,0.54886,0.921,0.323,1.56
363.5,196.7,3.9554,0.55003,0.918,0.325,1.55
363.6,197.1,3.9549,0.54989,0.915,0.326,1.54
363.7,197.4,3.9544,0.54905,0.911,0.325,1.54
363.8,197.7,3.9542,0.54875,0.909,0.324,1.54
363.9,198.0,3.9543,0.54878,0.909,0.325,1.54
364.0,198.3,3.9544,0.54859,0.910,0.325,1.54
364.1,198.6,3.9543,0.54821,0.913,0.324,1.55
364.2,198.9,3.9543,0.54789,0.914,0.323,1.55
364.3,199.2,3.9543,0.54783,0.914,0.325,1.54
364.4,199.5,3.9543,0.54812,0.914,0.327,1.53
364.5,199.8,3.9543,0.54841,0.915,0.326,1.54
364.6,200.1,3.9543,0.54844,0.914,0.324,1.55
364.7,200.4,3.9543,0.5484,0.915,0.325,1.54
364.8,200.7,3.9543,0.54857,0.920,0.326,1.55
364.9,201.1,3.9543,0.5491,0.922,0.325,1.56
365.0,201.4,3.9544,0.5499,0.919,0.324,1.56
365.1,201.7,3.9543,0.55035,0.917,0.325,1.55
365.2,202.0,3.9543,0.55017,0.913,0.326,1.54
365.3,202.3,3.9544,0.54987,0.911,0.325,1.54
365.4,202.6,3.9548,0.54989,0.912,0.325,1.54
365.5,202.9,3.9551,0.5503,0.913,0.325,1.55
365.6,203.2,3.9553,0.55094,0.916,0.326,1.55
365.7,203.5,3.9554,0.55139,0.916,0.325,1.55
365.8,203.8,3.9554,0.55141,0.915,0.325,1.55
365.9,204.1,3.9553,0.55109,0.919,0.325,1.56
366.0,204.4,3.9551,0.55043,0.925,0.325,1.57
366.1,204.7,3.9550,0.54939,0.922,0.325,1.56
366.2,205.1,3.9550,0.54864,0.916,0.323,1.55
366.3,205.4,3.9550,0.54949,0.915,0.322,1.56
366.4,205.7,3.9550,0.55153,0.917,0.323,1.57
366.5,206.0,3.9549,0.5528,0.917,0.324,1.57
366.6,206.3,3.9547,0.55279,0.916,0.325,1.56
366.7,206.6,3.9545,0.55217,0.915,0.326,1.55
366.8,206.9,3.9544,0.55167,0.915,0.326,1.55
366.9,207.2,3.9543,0.55189,0.914,0.325,1.55
367.0,207.5,3.9543,0.55226,0.913,0.325,1.55
367.1,207.8,3.9544,0.55168,0.911,0.326,1.54
367.2,208.1,3.9543,0.55091,0.910,0.326,1.54
367.3,208.4,3.9544,0.55137,0.911,0.326,1.54
367.4,208.8,3.9544,0.55233,0.912,0.326,1.55
367.5,209.1,3.9543,0.55234,0.910,0.326,1.54
