##Temp./›C,Time/min,DSC/(uV/mg),Mass/%,Gas Flow(purge2)/(ml/min),Gas Flow(protective)/(ml/min),DTG/(%/min),Sensit./(uV/mW)
40,0,-4.31E-03,100,0.00E+00,70,-0.81372,1
40.49887,0.70344,-1.23E-02,99.91732,0.00E+00,70,6.38E-02,1
40.99775,0.90998,-1.66E-02,99.89968,0.00E+00,70,3.11E-02,1
41.49662,1.06219,-2.06E-02,99.91693,0.00E+00,70,2.42E-02,1
41.9955,1.18867,-2.38E-02,99.91499,0.00E+00,70,2.68E-02,1
42.49437,1.29978,-2.67E-02,99.90844,0.00E+00,70,2.77E-02,1
42.99324,1.40043,-2.77E-02,99.91916,0.00E+00,70,2.27E-02,1
43.49212,1.49337,-3.01E-02,99.93192,0.00E+00,70,1.07E-02,1
43.99099,1.58059,-3.01E-02,99.93717,0.00E+00,70,-7.10E-03,1
44.48987,1.66359,-3.09E-02,99.92565,0.00E+00,70,-2.75E-02,1
44.98874,1.74357,-3.05E-02,99.94502,0.00E+00,70,-4.68E-02,1
45.48761,1.8211,-3.16E-02,99.92223,0.00E+00,70,-6.19E-02,1
45.98649,1.89641,-2.96E-02,99.90785,0.00E+00,70,-7.10E-02,1
46.48536,1.96964,-2.93E-02,99.89882,0.00E+00,70,-7.39E-02,1
46.98424,2.04125,-2.94E-02,99.89683,0.00E+00,70,-7.18E-02,1
47.48311,2.11144,-2.70E-02,99.89796,0.00E+00,70,-6.60E-02,1
47.98198,2.18063,-2.68E-02,99.89255,0.00E+00,70,-5.76E-02,1
48.48086,2.2486,-2.64E-02,99.87483,0.00E+00,70,-4.80E-02,1
48.97973,2.31552,-2.53E-02,99.88758,0.00E+00,70,-3.80E-02,1
49.47861,2.38141,-2.45E-02,99.87582,0.00E+00,70,-2.88E-02,1
49.97748,2.4465,-2.34E-02,99.87074,0.00E+00,70,-2.17E-02,1
50.47635,2.51094,-2.29E-02,99.87679,0.00E+00,70,-1.78E-02,1
50.97523,2.5748,-2.14E-02,99.88216,0.00E+00,70,-1.76E-02,1
51.4741,2.638,-2.12E-02,99.88137,0.00E+00,70,-2.14E-02,1
51.97298,2.70042,-2.11E-02,99.89099,0.00E+00,70,-2.85E-02,1
52.47185,2.7621,-2.08E-02,99.88354,0.00E+00,70,-3.81E-02,1
52.97072,2.82291,-2.10E-02,99.86719,0.00E+00,70,-4.89E-02,1
53.4696,2.88305,-2.08E-02,99.8771,0.00E+00,70,-6.01E-02,1
53.96847,2.94259,-2.15E-02,99.87097,0.00E+00,70,-7.11E-02,1
54.46735,3.00169,-2.07E-02,99.86117,0.00E+00,70,-8.15E-02,1
54.96622,3.06042,-2.20E-02,99.85995,0.00E+00,70,-9.09E-02,1
55.46509,3.11874,-2.28E-02,99.8568,0.00E+00,70,-9.92E-02,1
55.96397,3.17667,-2.34E-02,99.84646,0.00E+00,70,-0.10649,1
56.46284,3.234,-2.42E-02,99.8397,0.00E+00,70,-0.1128,1
56.96172,3.29082,-2.57E-02,99.83211,0.00E+00,70,-0.11842,1
57.46059,3.34701,-2.58E-02,99.82145,0.00E+00,70,-0.12372,1
57.95946,3.40252,-2.70E-02,99.81402,0.00E+00,70,-0.12904,1
58.45834,3.45751,-2.74E-02,99.81264,0.00E+00,70,-0.13465,1
58.95721,3.51189,-2.93E-02,99.8091,0.00E+00,70,-0.14059,1
59.45609,3.56563,-3.00E-02,99.80259,0.00E+00,70,-0.14672,1
59.95496,3.61894,-3.29E-02,99.79267,0.00E+00,70,-0.15279,1
60.45383,3.67173,-3.42E-02,99.78179,0.00E+00,70,-0.1585,1
60.95271,3.72403,-3.52E-02,99.77133,0.00E+00,70,-0.16361,1
61.45158,3.77592,-3.69E-02,99.76082,0.00E+00,70,-0.16802,1
61.95046,3.8273,-3.79E-02,99.75047,0.00E+00,70,-0.17172,1
62.44933,3.8781,-4.01E-02,99.74021,0.00E+00,70,-0.1748,1
62.9482,3.92836,-4.16E-02,99.73595,0.00E+00,70,-0.17738,1
63.44708,3.9781,-4.32E-02,99.73124,0.00E+00,70,-0.17953,1
63.94595,4.02737,-4.56E-02,99.72446,0.00E+00,70,-0.18131,1
64.44483,4.07621,-4.63E-02,99.71113,0.00E+00,70,-0.18274,1
64.9437,4.12471,-4.80E-02,99.69559,0.00E+00,70,-0.18382,1
65.44257,4.17289,-5.01E-02,99.68614,0.00E+00,70,-0.18462,1
65.94145,4.22074,-5.14E-02,99.68026,0.00E+00,70,-0.18524,1
66.44032,4.26828,-5.29E-02,99.67321,0.00E+00,70,-0.18581,1
66.9392,4.31559,-5.48E-02,99.66338,0.00E+00,70,-0.18648,1
67.43807,4.36274,-5.72E-02,99.65546,0.00E+00,70,-0.18738,1
67.93694,4.40965,-5.96E-02,99.64538,0.00E+00,70,-0.18854,1
68.43582,4.45644,-6.00E-02,99.63827,0.00E+00,70,-0.18994,1
68.93469,4.50302,-6.26E-02,99.63201,0.00E+00,70,-0.19145,1
69.43357,4.54938,-6.45E-02,99.62447,0.00E+00,70,-0.19293,1
69.93244,4.59546,-6.65E-02,99.61438,0.00E+00,70,-0.19422,1
70.43131,4.64129,-6.81E-02,99.60742,0.00E+00,70,-0.19523,1
70.93019,4.68685,-7.07E-02,99.59237,0.00E+00,70,-0.19598,1
71.42906,4.73214,-7.23E-02,99.57369,0.00E+00,70,-0.19659,1
71.92794,4.77718,-7.38E-02,99.56752,0.00E+00,70,-0.19726,1
72.42681,4.82197,-7.68E-02,99.56641,0.00E+00,70,-0.19827,1
72.92568,4.86654,-7.87E-02,99.55942,0.00E+00,70,-0.19987,1
73.42456,4.91093,-7.93E-02,99.55096,0.00E+00,70,-0.20223,1
73.92343,4.95518,-8.16E-02,99.54247,0.00E+00,70,-0.20542,1
74.42231,4.99926,-8.38E-02,99.53293,0.00E+00,70,-0.20934,1
74.92118,5.04326,-8.61E-02,99.52568,0.00E+00,70,-0.21374,1
75.42005,5.08721,-8.86E-02,99.51901,0.00E+00,70,-0.21823,1
75.91893,5.13106,-9.07E-02,99.50947,0.00E+00,70,-0.22232,1
76.4178,5.17478,-9.21E-02,99.49784,0.00E+00,70,-0.22544,1
76.91668,5.2184,-9.44E-02,99.48614,0.00E+00,70,-0.22712,1
77.41555,5.26199,-9.75E-02,99.4742,0.00E+00,70,-0.22693,1
77.91442,5.30548,-9.93E-02,99.46103,0.00E+00,70,-0.22461,1
78.4133,5.34877,-0.1009,99.447,0.00E+00,70,-0.2201,1
78.91217,5.39199,-0.10475,99.43405,0.00E+00,70,-0.21349,1
79.41105,5.43507,-0.10806,99.42281,0.00E+00,70,-0.2051,1
79.90992,5.47803,-0.1103,99.41509,0.00E+00,70,-0.19532,1
80.40879,5.52083,-0.11303,99.40763,0.00E+00,70,-0.18468,1
80.90767,5.56351,-0.11534,99.40023,0.00E+00,70,-0.17369,1
81.40654,5.60614,-0.11756,99.39445,0.00E+00,70,-0.16282,1
81.90542,5.64866,-0.12233,99.38752,0.00E+00,70,-0.15252,1
82.40429,5.69113,-0.12449,99.38512,0.00E+00,70,-0.14312,1
82.90316,5.7335,-0.1274,99.38147,0.00E+00,70,-0.13486,1
83.40204,5.77579,-0.12999,99.37567,0.00E+00,70,-0.12789,1
83.90091,5.81798,-0.13378,99.37066,0.00E+00,70,-0.12226,1
84.39979,5.86011,-0.13827,99.36579,0.00E+00,70,-0.118,1
84.89866,5.90216,-0.14015,99.36024,0.00E+00,70,-0.11506,1
85.39753,5.94411,-0.14415,99.35803,0.00E+00,70,-0.11342,1
85.89641,5.98599,-0.14902,99.35505,0.00E+00,70,-0.11304,1
86.39528,6.02775,-0.15296,99.35086,0.00E+00,70,-0.11391,1
86.89416,6.06941,-0.15621,99.34588,0.00E+00,70,-0.11602,1
87.39303,6.11101,-0.15968,99.33994,0.00E+00,70,-0.11937,1
87.8919,6.15252,-0.16346,99.33463,0.00E+00,70,-0.12395,1
88.39078,6.194,-0.16719,99.33243,0.00E+00,70,-0.1297,1
88.88965,6.23539,-0.1712,99.32974,0.00E+00,70,-0.13649,1
89.38853,6.27678,-0.17543,99.32411,0.00E+00,70,-0.1441,1
89.8874,6.31814,-0.17936,99.3169,0.00E+00,70,-0.15219,1
90.38627,6.35943,-0.18298,99.31074,0.00E+00,70,-0.16029,1
90.88515,6.4007,-0.18703,99.30653,0.00E+00,70,-0.16789,1
91.38402,6.44191,-0.19162,99.30407,0.00E+00,70,-0.17439,1
91.8829,6.48309,-0.19591,99.30242,0.00E+00,70,-0.17926,1
92.38177,6.52426,-0.19984,99.28693,0.00E+00,70,-0.18207,1
92.88064,6.5654,-0.20398,99.26672,0.00E+00,70,-0.18255,1
93.37952,6.60647,-0.20825,99.2549,0.00E+00,70,-0.18064,1
93.87839,6.64748,-0.21218,99.24148,0.00E+00,70,-0.17654,1
94.37727,6.68847,-0.21671,99.22838,0.00E+00,70,-0.17064,1
94.87614,6.72945,-0.22164,99.22249,0.00E+00,70,-0.16349,1
95.37501,6.7704,-0.22595,99.22121,0.00E+00,70,-0.15571,1
95.87389,6.81132,-0.22955,99.22011,0.00E+00,70,-0.1479,1
96.37276,6.85225,-0.23366,99.219,0.00E+00,70,-0.14056,1
96.87164,6.89321,-0.23893,99.21703,0.00E+00,70,-0.13405,1
97.37051,6.93414,-0.24343,99.21171,0.00E+00,70,-0.12853,1
97.86938,6.97506,-0.24838,99.20746,0.00E+00,70,-0.12397,1
98.36826,7.01596,-0.25234,99.20395,0.00E+00,70,-0.1202,1
98.86713,7.05686,-0.25503,99.1976,0.00E+00,70,-0.11693,1
99.36601,7.09781,-0.25972,99.1898,0.00E+00,70,-0.11382,1
99.86488,7.13872,-0.26471,99.18425,0.00E+00,70,-0.11057,1
100.36375,7.17965,-0.26827,99.17792,0.00E+00,70,-0.10689,1
100.86263,7.22057,-0.27243,99.17191,0.00E+00,70,-0.10261,1
101.3615,7.26147,-0.27702,99.16859,0.00E+00,70,-9.76E-02,1
101.86038,7.30235,-0.28069,99.16637,0.00E+00,70,-9.20E-02,1
102.35925,7.34318,-0.28572,99.16201,0.00E+00,70,-8.58E-02,1
102.85812,7.38404,-0.28965,99.15725,0.00E+00,70,-7.91E-02,1
103.357,7.4249,-0.29347,99.15401,0.00E+00,70,-7.21E-02,1
103.85587,7.46579,-0.29809,99.14959,0.00E+00,70,-6.49E-02,1
104.35475,7.50676,-0.30243,99.14449,0.00E+00,70,-5.79E-02,1
104.85362,7.54777,-0.3061,99.14484,0.00E+00,70,-5.10E-02,1
105.35249,7.58886,-0.31072,99.14861,0.00E+00,70,-4.45E-02,1
105.85137,7.62997,-0.31365,99.14774,0.00E+00,70,-3.85E-02,1
106.35024,7.67116,-0.31702,99.14573,0.00E+00,70,-3.31E-02,1
106.84912,7.71238,-0.32137,99.14423,0.00E+00,70,-2.86E-02,1
107.34799,7.75361,-0.32483,99.1407,0.00E+00,70,-2.51E-02,1
107.84686,7.79489,-0.32883,99.13851,0.00E+00,70,-2.27E-02,1
108.34574,7.83619,-0.33281,99.13691,0.00E+00,70,-2.18E-02,1
108.84461,7.87751,-0.33653,99.13827,0.00E+00,70,-2.23E-02,1
109.34349,7.91882,-0.34097,99.14025,0.00E+00,70,-2.44E-02,1
109.84236,7.96015,-0.34459,99.14138,0.00E+00,70,-2.80E-02,1
110.34123,8.00157,-0.34651,99.14376,0.00E+00,70,-3.30E-02,1
110.84011,8.04299,-0.3511,99.14598,0.00E+00,70,-3.89E-02,1
111.33898,8.08445,-0.35436,99.14826,0.00E+00,70,-4.52E-02,1
111.83786,8.12597,-0.35776,99.14968,0.00E+00,70,-5.14E-02,1
112.33673,8.16755,-0.36176,99.14381,0.00E+00,70,-5.67E-02,1
112.8356,8.20915,-0.36521,99.13178,0.00E+00,70,-6.06E-02,1
113.33448,8.25074,-0.36875,99.12335,0.00E+00,70,-6.26E-02,1
113.83335,8.29241,-0.37264,99.11851,0.00E+00,70,-6.24E-02,1
114.33223,8.33411,-0.3759,99.11737,0.00E+00,70,-5.98E-02,1
114.8311,8.37582,-0.37889,99.11403,0.00E+00,70,-5.50E-02,1
115.32997,8.41753,-0.38313,99.10659,0.00E+00,70,-4.86E-02,1
115.82885,8.45926,-0.38734,99.09923,0.00E+00,70,-4.09E-02,1
116.32772,8.50099,-0.38992,99.09655,0.00E+00,70,-3.28E-02,1
116.8266,8.54272,-0.39431,99.09972,0.00E+00,70,-2.48E-02,1
117.32547,8.58444,-0.39708,99.10453,0.00E+00,70,-1.78E-02,1
117.82434,8.6262,-0.40003,99.10757,0.00E+00,70,-1.21E-02,1
118.32322,8.66799,-0.40397,99.10957,0.00E+00,70,-8.15E-03,1
118.82209,8.70984,-0.40759,99.11189,0.00E+00,70,-6.03E-03,1
119.32097,8.75176,-0.41049,99.11414,0.00E+00,70,-5.71E-03,1
119.81984,8.79371,-0.41293,99.11549,0.00E+00,70,-7.01E-03,1
120.31871,8.83569,-0.41634,99.11338,0.00E+00,70,-9.60E-03,1
120.81759,8.87769,-0.41924,99.11261,0.00E+00,70,-1.31E-02,1
121.31646,8.91969,-0.42252,99.11208,0.00E+00,70,-1.72E-02,1
121.81534,8.96168,-0.42633,99.10898,0.00E+00,70,-2.16E-02,1
122.31421,9.00364,-0.42949,99.10577,0.00E+00,70,-2.59E-02,1
122.81308,9.04563,-0.43318,99.10469,0.00E+00,70,-3.00E-02,1
123.31196,9.08765,-0.43577,99.10371,0.00E+00,70,-3.37E-02,1
123.81083,9.12972,-0.43977,99.10215,0.00E+00,70,-3.67E-02,1
124.30971,9.17188,-0.4437,99.10255,0.00E+00,70,-3.90E-02,1
124.80858,9.21416,-0.44624,99.10301,0.00E+00,70,-4.05E-02,1
125.30745,9.25652,-0.44911,99.10195,0.00E+00,70,-4.12E-02,1
125.80633,9.29888,-0.45281,99.10074,0.00E+00,70,-4.10E-02,1
126.3052,9.34124,-0.45644,99.09058,0.00E+00,70,-4.00E-02,1
126.80408,9.38361,-0.45964,99.08339,0.00E+00,70,-3.85E-02,1
127.30295,9.42595,-0.46365,99.07908,0.00E+00,70,-3.69E-02,1
127.80182,9.46828,-0.4673,99.07804,0.00E+00,70,-3.53E-02,1
128.3007,9.51062,-0.46997,99.08126,0.00E+00,70,-3.42E-02,1
128.79957,9.55299,-0.47318,99.08467,0.00E+00,70,-3.39E-02,1
129.29845,9.59539,-0.47639,99.08815,0.00E+00,70,-3.44E-02,1
129.79732,9.63781,-0.47976,99.0899,0.00E+00,70,-3.59E-02,1
130.29619,9.68027,-0.48317,99.08839,0.00E+00,70,-3.82E-02,1
130.79507,9.72267,-0.48587,99.08585,0.00E+00,70,-4.09E-02,1
131.29394,9.76504,-0.48893,99.08352,0.00E+00,70,-4.39E-02,1
131.79282,9.8075,-0.4929,99.07942,0.00E+00,70,-4.68E-02,1
132.29169,9.85001,-0.49606,99.07365,0.00E+00,70,-4.92E-02,1
132.79056,9.89257,-0.49915,99.07027,0.00E+00,70,-5.10E-02,1
133.28944,9.93517,-0.50187,99.0656,0.00E+00,70,-5.21E-02,1
133.78831,9.97792,-0.50493,99.06316,0.00E+00,70,-5.26E-02,1
134.28719,10.02079,-0.5085,99.06237,0.00E+00,70,-5.27E-02,1
134.78606,10.06369,-0.51186,99.06128,0.00E+00,70,-5.27E-02,1
135.28493,10.10662,-0.51495,99.05977,0.00E+00,70,-5.27E-02,1
135.78381,10.14956,-0.51822,99.05618,0.00E+00,70,-5.31E-02,1
136.28268,10.19257,-0.52113,99.05374,0.00E+00,70,-5.40E-02,1
136.78156,10.23561,-0.5252,99.0524,0.00E+00,70,-5.54E-02,1
137.28043,10.27864,-0.52825,99.05182,0.00E+00,70,-5.72E-02,1
137.7793,10.32167,-0.53063,99.05289,0.00E+00,70,-5.90E-02,1
138.27818,10.36474,-0.53354,99.05306,0.00E+00,70,-6.05E-02,1
138.77705,10.40787,-0.53644,99.05231,0.00E+00,70,-6.13E-02,1
139.27593,10.45105,-0.5396,99.05197,0.00E+00,70,-6.11E-02,1
139.7748,10.49424,-0.54357,99.04054,0.00E+00,70,-5.96E-02,1
140.27367,10.53755,-0.54643,99.02724,0.00E+00,70,-5.70E-02,1
140.77255,10.58093,-0.54958,99.01643,0.00E+00,70,-5.35E-02,1
141.27142,10.62435,-0.55296,99.01077,0.00E+00,70,-4.96E-02,1
141.7703,10.66776,-0.55612,99.01468,0.00E+00,70,-4.59E-02,1
142.26917,10.71116,-0.55934,99.02257,0.00E+00,70,-4.30E-02,1
142.76804,10.75459,-0.56201,99.02551,0.00E+00,70,-4.13E-02,1
143.26692,10.79799,-0.56384,99.0291,0.00E+00,70,-4.13E-02,1
143.76579,10.84145,-0.56736,99.0304,0.00E+00,70,-4.27E-02,1
144.26467,10.88499,-0.57131,99.03113,0.00E+00,70,-4.55E-02,1
144.76354,10.92868,-0.57437,99.02721,0.00E+00,70,-4.91E-02,1
145.26241,10.97245,-0.57713,99.02052,0.00E+00,70,-5.30E-02,1
145.76129,11.01628,-0.58027,99.01538,0.00E+00,70,-5.65E-02,1
146.26016,11.06017,-0.58402,99.01038,0.00E+00,70,-5.92E-02,1
146.75904,11.1041,-0.58749,99.00452,0.00E+00,70,-6.07E-02,1
147.25791,11.14808,-0.58922,99.00105,0.00E+00,70,-6.10E-02,1
147.75678,11.19206,-0.59307,98.99877,0.00E+00,70,-6.01E-02,1
148.25566,11.23612,-0.59679,98.99528,0.00E+00,70,-5.83E-02,1
148.75453,11.28022,-0.59864,98.99253,0.00E+00,70,-5.59E-02,1
149.25341,11.32437,-0.60168,98.99004,0.00E+00,70,-5.32E-02,1
149.75228,11.36855,-0.60551,98.98857,0.00E+00,70,-5.08E-02,1
150.25115,11.41278,-0.6078,98.98893,0.00E+00,70,-4.89E-02,1
150.75003,11.4571,-0.61041,98.98872,0.00E+00,70,-4.76E-02,1
151.2489,11.50142,-0.61387,98.98742,0.00E+00,70,-4.73E-02,1
151.74778,11.54582,-0.61618,98.98504,0.00E+00,70,-4.78E-02,1
152.24665,11.59025,-0.61993,98.98249,0.00E+00,70,-4.91E-02,1
152.74552,11.63476,-0.62307,98.98121,0.00E+00,70,-5.11E-02,1
153.2444,11.67925,-0.62519,98.97927,0.00E+00,70,-5.35E-02,1
153.74327,11.72374,-0.62723,98.9768,0.00E+00,70,-5.62E-02,1
154.24215,11.7683,-0.63015,98.97421,0.00E+00,70,-5.90E-02,1
154.74102,11.81297,-0.63319,98.97246,0.00E+00,70,-6.17E-02,1
155.23989,11.85771,-0.63555,98.97059,0.00E+00,70,-6.41E-02,1
155.73877,11.90249,-0.6388,98.96425,0.00E+00,70,-6.61E-02,1
156.23764,11.9474,-0.6409,98.95944,0.00E+00,70,-6.76E-02,1
156.73652,11.9924,-0.643,98.95569,0.00E+00,70,-6.87E-02,1
157.23539,12.03751,-0.64628,98.95306,0.00E+00,70,-6.95E-02,1
157.73426,12.08265,-0.64895,98.95088,0.00E+00,70,-7.01E-02,1
158.23314,12.12789,-0.65105,98.94747,0.00E+00,70,-7.07E-02,1
158.73201,12.1732,-0.65352,98.94445,0.00E+00,70,-7.17E-02,1
159.23089,12.21859,-0.65612,98.94171,0.00E+00,70,-7.32E-02,1
159.72976,12.264,-0.65909,98.9378,0.00E+00,70,-7.54E-02,1
160.22863,12.30933,-0.66197,98.93431,0.00E+00,70,-7.85E-02,1
160.72751,12.35467,-0.66363,98.93217,0.00E+00,70,-8.26E-02,1
161.22638,12.39998,-0.66648,98.93227,0.00E+00,70,-8.76E-02,1
161.72526,12.44531,-0.66838,98.93136,0.00E+00,70,-9.33E-02,1
162.22413,12.49058,-0.67016,98.92449,0.00E+00,70,-9.96E-02,1
162.723,12.53597,-0.6733,98.91781,0.00E+00,70,-0.106,1
163.22188,12.5815,-0.67606,98.91247,0.00E+00,70,-0.1122,1
163.72075,12.62717,-0.67876,98.90905,0.00E+00,70,-0.11776,1
164.21963,12.67298,-0.68093,98.90669,0.00E+00,70,-0.12228,1
164.7185,12.7189,-0.68337,98.89735,0.00E+00,70,-0.12547,1
165.21737,12.76493,-0.68658,98.88469,0.00E+00,70,-0.12722,1
165.71625,12.81103,-0.6888,98.87817,0.00E+00,70,-0.1276,1
166.21512,12.85708,-0.69133,98.87048,0.00E+00,70,-0.12687,1
166.714,12.90313,-0.69362,98.86314,0.00E+00,70,-0.12549,1
167.21287,12.9492,-0.69531,98.85697,0.00E+00,70,-0.12403,1
167.71174,12.99542,-0.69833,98.85188,0.00E+00,70,-0.12303,1
168.21062,13.04165,-0.70093,98.84908,0.00E+00,70,-0.12299,1
168.70949,13.088,-0.70292,98.84782,0.00E+00,70,-0.12421,1
169.20837,13.13443,-0.7053,98.84576,0.00E+00,70,-0.12679,1
169.70724,13.18095,-0.70873,98.84243,0.00E+00,70,-0.13059,1
170.20611,13.22743,-0.71172,98.83785,0.00E+00,70,-0.13528,1
170.70499,13.27391,-0.71359,98.83242,0.00E+00,70,-0.14045,1
171.20386,13.32042,-0.71574,98.82082,0.00E+00,70,-0.14569,1
171.70274,13.36691,-0.7188,98.80718,0.00E+00,70,-0.15073,1
172.20161,13.41344,-0.72142,98.79929,0.00E+00,70,-0.15544,1
172.70048,13.45998,-0.72357,98.79043,0.00E+00,70,-0.15987,1
173.19936,13.50657,-0.72664,98.78331,0.00E+00,70,-0.16422,1
173.69823,13.55322,-0.72902,98.77852,0.00E+00,70,-0.16876,1
174.19711,13.59996,-0.73181,98.77475,0.00E+00,70,-0.17377,1
174.69598,13.6467,-0.7334,98.76854,0.00E+00,70,-0.17942,1
175.19485,13.69356,-0.73661,98.76085,0.00E+00,70,-0.18579,1
175.69373,13.74051,-0.73916,98.75404,0.00E+00,70,-0.19282,1
176.1926,13.78745,-0.74175,98.73954,0.00E+00,70,-0.2003,1
176.69148,13.83435,-0.74448,98.72892,0.00E+00,70,-0.20798,1
177.19035,13.88135,-0.74713,98.71951,0.00E+00,70,-0.21558,1
177.68922,13.92838,-0.74919,98.71043,0.00E+00,70,-0.22276,1
178.1881,13.97534,-0.75182,98.69922,0.00E+00,70,-0.22924,1
178.68697,14.02233,-0.75411,98.6882,0.00E+00,70,-0.23474,1
179.18585,14.06938,-0.75686,98.67864,0.00E+00,70,-0.23906,1
179.68472,14.11644,-0.75986,98.66441,0.00E+00,70,-0.24203,1
180.18359,14.16351,-0.76138,98.64953,0.00E+00,70,-0.24363,1
180.68247,14.21062,-0.76501,98.63777,0.00E+00,70,-0.24397,1
181.18134,14.25776,-0.76777,98.62742,0.00E+00,70,-0.24335,1
181.68022,14.30495,-0.76972,98.61271,0.00E+00,70,-0.24225,1
182.17909,14.35219,-0.77313,98.59644,0.00E+00,70,-0.24127,1
182.67796,14.39946,-0.77493,98.58769,0.00E+00,70,-0.24113,1
183.17684,14.4468,-0.7777,98.57627,0.00E+00,70,-0.24244,1
183.67571,14.49423,-0.77893,98.5667,0.00E+00,70,-0.24569,1
184.17459,14.5417,-0.78218,98.56388,0.00E+00,70,-0.25111,1
184.67346,14.58926,-0.7844,98.55832,0.00E+00,70,-0.25862,1
185.17233,14.63693,-0.78533,98.55025,0.00E+00,70,-0.26787,1
185.67121,14.68465,-0.78814,98.5363,0.00E+00,70,-0.27828,1
186.17008,14.73239,-0.79052,98.51987,0.00E+00,70,-0.28923,1
186.66896,14.78019,-0.79323,98.49532,0.00E+00,70,-0.30015,1
187.16783,14.82799,-0.79612,98.47629,0.00E+00,70,-0.31059,1
187.6667,14.87574,-0.79835,98.46144,0.00E+00,70,-0.32035,1
188.16558,14.9235,-0.801,98.44704,0.00E+00,70,-0.32942,1
188.66445,14.97133,-0.80375,98.43827,0.00E+00,70,-0.33797,1
189.16333,15.0192,-0.80605,98.42513,0.00E+00,70,-0.34622,1
189.6622,15.06708,-0.80843,98.40797,0.00E+00,70,-0.3544,1
190.16107,15.11499,-0.81139,98.38743,0.00E+00,70,-0.36271,1
190.65995,15.16293,-0.81383,98.36178,0.00E+00,70,-0.37129,1
191.15882,15.21088,-0.8158,98.34508,0.00E+00,70,-0.38016,1
191.6577,15.25879,-0.81924,98.33313,0.00E+00,70,-0.38927,1
192.15657,15.30673,-0.82095,98.31593,0.00E+00,70,-0.39848,1
192.65544,15.35476,-0.82308,98.29894,0.00E+00,70,-0.40761,1
193.15432,15.40278,-0.82698,98.27801,0.00E+00,70,-0.41638,1
193.65319,15.45084,-0.82799,98.25737,0.00E+00,70,-0.42456,1
194.15207,15.499,-0.83056,98.23541,0.00E+00,70,-0.43198,1
194.65094,15.5472,-0.83432,98.20403,0.00E+00,70,-0.43856,1
195.14981,15.5954,-0.83734,98.18524,0.00E+00,70,-0.4444,1
195.64869,15.64368,-0.83862,98.16513,0.00E+00,70,-0.44971,1
196.14756,15.69201,-0.8413,98.14246,0.00E+00,70,-0.4548,1
196.64644,15.74032,-0.84342,98.12461,0.00E+00,70,-0.46,1
197.14531,15.78861,-0.84727,98.09922,0.00E+00,70,-0.46559,1
197.64418,15.8369,-0.84958,98.07952,0.00E+00,70,-0.47172,1
198.14306,15.88518,-0.85259,98.05783,0.00E+00,70,-0.47834,1
198.64193,15.93348,-0.85421,98.03531,0.00E+00,70,-0.48529,1
199.14081,15.98176,-0.85674,98.01688,0.00E+00,70,-0.49224,1
199.63968,16.03012,-0.86012,97.99078,0.00E+00,70,-0.49887,1
200.13855,16.07856,-0.86288,97.95965,0.00E+00,70,-0.50487,1
200.63743,16.12705,-0.86526,97.93579,0.00E+00,70,-0.51006,1
201.1363,16.17557,-0.86759,97.9057,0.00E+00,70,-0.51442,1
201.63518,16.22415,-0.87136,97.87717,0.00E+00,70,-0.5181,1
202.13405,16.27275,-0.87436,97.85722,0.00E+00,70,-0.52137,1
202.63292,16.32134,-0.87626,97.83487,0.00E+00,70,-0.52457,1
203.1318,16.37,-0.87976,97.81416,0.00E+00,70,-0.52803,1
203.63067,16.41868,-0.88311,97.78279,0.00E+00,70,-0.53201,1
204.12955,16.46739,-0.88578,97.75141,0.00E+00,70,-0.53668,1
204.62842,16.51617,-0.8889,97.73393,0.00E+00,70,-0.54211,1
205.12729,16.56503,-0.8915,97.70834,0.00E+00,70,-0.54825,1
205.62617,16.61383,-0.89417,97.68474,0.00E+00,70,-0.55503,1
206.12504,16.66264,-0.897,97.65281,0.00E+00,70,-0.56235,1
206.62392,16.71152,-0.89877,97.61576,0.00E+00,70,-0.57012,1
207.12279,16.76037,-0.90254,97.60099,0.00E+00,70,-0.57819,1
207.62166,16.80916,-0.90516,97.56568,0.00E+00,70,-0.58639,1
208.12054,16.858,-0.90897,97.53572,0.00E+00,70,-0.59446,1
208.61941,16.90686,-0.91128,97.51295,0.00E+00,70,-0.60203,1
209.11829,16.95571,-0.91497,97.48763,0.00E+00,70,-0.60866,1
209.61716,17.00461,-0.91803,97.45103,0.00E+00,70,-0.61391,1
210.11603,17.05357,-0.92091,97.42628,0.00E+00,70,-0.61749,1
210.61491,17.10262,-0.92346,97.38966,0.00E+00,70,-0.61931,1
211.11378,17.1517,-0.9269,97.3476,0.00E+00,70,-0.61958,1
211.61266,17.2008,-0.92981,97.31462,0.00E+00,70,-0.61881,1
212.11153,17.24988,-0.93233,97.27757,0.00E+00,70,-0.61771,1
212.6104,17.29901,-0.93534,97.25637,0.00E+00,70,-0.61699,1
213.10928,17.34812,-0.93931,97.2314,0.00E+00,70,-0.6172,1
213.60815,17.3973,-0.94135,97.20948,0.00E+00,70,-0.61858,1
214.10703,17.44655,-0.94463,97.19963,0.00E+00,70,-0.62103,1
214.6059,17.49585,-0.94728,97.15927,0.00E+00,70,-0.62414,1
215.10477,17.54515,-0.94935,97.11078,0.00E+00,70,-0.62736,1
215.60365,17.59445,-0.95419,97.07255,0.00E+00,70,-0.63022,1
216.10252,17.64369,-0.95771,97.0415,0.00E+00,70,-0.63237,1
216.6014,17.69293,-0.96012,97.01365,0.00E+00,70,-0.63378,1
217.10027,17.74215,-0.96393,96.98444,0.00E+00,70,-0.63459,1
217.59914,17.79142,-0.96671,96.95769,0.00E+00,70,-0.63508,1
218.09802,17.84073,-0.97056,96.92832,0.00E+00,70,-0.63552,1
218.59689,17.89012,-0.97272,96.89427,0.00E+00,70,-0.63607,1
219.09577,17.93952,-0.97647,96.86821,0.00E+00,70,-0.63674,1
219.59464,17.989,-0.9798,96.82765,0.00E+00,70,-0.63737,1
220.09351,18.03851,-0.98422,96.79443,0.00E+00,70,-0.63766,1
220.59239,18.08801,-0.98614,96.76979,0.00E+00,70,-0.63728,1
221.09126,18.13741,-0.9895,96.73943,0.00E+00,70,-0.63591,1
221.59014,18.18687,-0.99364,96.70521,0.00E+00,70,-0.63345,1
222.08901,18.23626,-0.99648,96.66942,0.00E+00,70,-0.63011,1
222.58788,18.28557,-1.00019,96.63546,0.00E+00,70,-0.62653,1
223.08676,18.33493,-1.00318,96.6096,0.00E+00,70,-0.62381,1
223.58563,18.38443,-1.00655,96.57233,0.00E+00,70,-0.62341,1
224.08451,18.43395,-1.00936,96.54518,0.00E+00,70,-0.62688,1
224.58338,18.48353,-1.01205,96.50364,0.00E+00,70,-0.63553,1
225.08225,18.5332,-1.01615,96.46993,0.00E+00,70,-0.64995,1
225.58113,18.58285,-1.01942,96.45013,0.00E+00,70,-0.66972,1
226.08,18.63245,-1.02198,96.47118,0.00E+00,70,-0.69346,1
226.57888,18.68206,-1.02471,96.47214,0.00E+00,70,-0.71915,1
227.07775,18.73168,-1.02811,96.40881,0.00E+00,70,-0.74463,1
227.57662,18.78132,-1.03228,96.31975,0.00E+00,70,-0.76821,1
228.0755,18.83107,-1.0357,96.24303,0.00E+00,70,-0.78913,1
228.57437,18.8809,-1.03924,96.18975,0.00E+00,70,-0.80761,1
229.07325,18.93073,-1.04331,96.14437,0.00E+00,70,-0.82458,1
229.57212,18.98056,-1.04701,96.1253,0.00E+00,70,-0.84116,1
230.07099,19.03046,-1.04927,96.14372,0.00E+00,70,-0.85799,1
230.56987,19.08027,-1.05184,96.17318,0.00E+00,70,-0.87476,1
231.06874,19.13001,-1.05501,96.08638,0.00E+00,70,-0.89028,1
231.56762,19.17977,-1.05944,95.96635,0.00E+00,70,-0.90289,1
232.06649,19.22951,-1.06299,95.898,0.00E+00,70,-0.91092,1
232.56536,19.27918,-1.06643,95.85299,0.00E+00,70,-0.9134,1
233.06424,19.32887,-1.07004,95.82557,0.00E+00,70,-0.91039,1
233.56311,19.37861,-1.07329,95.79009,0.00E+00,70,-0.90299,1
234.06199,19.42832,-1.07681,95.74924,0.00E+00,70,-0.89317,1
234.56086,19.47805,-1.08142,95.69141,0.00E+00,70,-0.88324,1
235.05973,19.52779,-1.08397,95.64192,0.00E+00,70,-0.87547,1
235.55861,19.57753,-1.08726,95.61418,0.00E+00,70,-0.87164,1
236.05748,19.62726,-1.09127,95.57966,0.00E+00,70,-0.87283,1
236.55636,19.67701,-1.09514,95.54771,0.00E+00,70,-0.87945,1
237.05523,19.72683,-1.09844,95.51249,0.00E+00,70,-0.89124,1
237.5541,19.77669,-1.10172,95.45432,0.00E+00,70,-0.90755,1
238.05298,19.82659,-1.10483,95.40638,0.00E+00,70,-0.92744,1
238.55185,19.8765,-1.10806,95.36069,0.00E+00,70,-0.94988,1
239.05073,19.92643,-1.11162,95.31533,0.00E+00,70,-0.97383,1
239.5496,19.97633,-1.11448,95.27361,0.00E+00,70,-0.99834,1
240.04847,20.02619,-1.11784,95.21569,0.00E+00,70,-1.02255,1
240.54735,20.07609,-1.12194,95.16504,0.00E+00,70,-1.0458,1
241.04622,20.12607,-1.12575,95.11555,0.00E+00,70,-1.06749,1
241.5451,20.17613,-1.12863,95.05415,0.00E+00,70,-1.08718,1
242.04397,20.22626,-1.13136,94.99478,0.00E+00,70,-1.10459,1
242.54284,20.27643,-1.1358,94.9385,0.00E+00,70,-1.11961,1
243.04172,20.32658,-1.1389,94.88222,0.00E+00,70,-1.13236,1
243.54059,20.37665,-1.14304,94.8276,0.00E+00,70,-1.1432,1
244.03947,20.4266,-1.14671,94.76934,0.00E+00,70,-1.15269,1
244.53834,20.47648,-1.14919,94.69992,0.00E+00,70,-1.16162,1
245.03721,20.52638,-1.15347,94.64408,0.00E+00,70,-1.17085,1
245.53609,20.57628,-1.1569,94.59177,0.00E+00,70,-1.1812,1
246.03496,20.6262,-1.15973,94.53584,0.00E+00,70,-1.19344,1
246.53384,20.67621,-1.16378,94.48171,0.00E+00,70,-1.20807,1
247.03271,20.72629,-1.16854,94.41178,0.00E+00,70,-1.22533,1
247.53158,20.77632,-1.17072,94.35733,0.00E+00,70,-1.24504,1
248.03046,20.82634,-1.17356,94.30649,0.00E+00,70,-1.26676,1
248.52933,20.87638,-1.17805,94.23954,0.00E+00,70,-1.28983,1
249.02821,20.92644,-1.18079,94.17092,0.00E+00,70,-1.31343,1
249.52708,20.97649,-1.18467,94.10011,0.00E+00,70,-1.33673,1
250.02595,21.02655,-1.18844,94.03212,0.00E+00,70,-1.35906,1
250.52483,21.07663,-1.19135,93.9617,0.00E+00,70,-1.37991,1
251.0237,21.12671,-1.19551,93.88532,0.00E+00,70,-1.399,1
251.52258,21.17672,-1.19964,93.81891,0.00E+00,70,-1.41625,1
252.02145,21.22672,-1.20348,93.75321,0.00E+00,70,-1.43179,1
252.52032,21.27673,-1.20666,93.67917,0.00E+00,70,-1.44586,1
253.0192,21.32677,-1.20986,93.60014,0.00E+00,70,-1.45877,1
253.51807,21.37686,-1.21385,93.52191,0.00E+00,70,-1.47086,1
254.01695,21.42697,-1.21745,93.45104,0.00E+00,70,-1.48252,1
254.51582,21.47709,-1.22083,93.38393,0.00E+00,70,-1.4942,1
255.01469,21.52726,-1.22387,93.30771,0.00E+00,70,-1.50645,1
255.51357,21.57742,-1.22878,93.22843,0.00E+00,70,-1.5198,1
256.01244,21.62754,-1.23263,93.15381,0.00E+00,70,-1.53486,1
256.51132,21.67768,-1.23584,93.07198,0.00E+00,70,-1.55216,1
257.01019,21.72781,-1.23978,92.99209,0.00E+00,70,-1.57204,1
257.50906,21.77788,-1.24304,92.92384,0.00E+00,70,-1.59453,1
258.00794,21.82794,-1.24729,92.85094,0.00E+00,70,-1.61936,1
258.50681,21.87804,-1.25025,92.77052,0.00E+00,70,-1.64585,1
259.00569,21.92815,-1.25383,92.69708,0.00E+00,70,-1.67299,1
259.50456,21.97833,-1.25855,92.60574,0.00E+00,70,-1.69965,1
260.00343,22.02857,-1.2623,92.50752,0.00E+00,70,-1.7247,1
260.50231,22.07877,-1.26633,92.4162,0.00E+00,70,-1.74725,1
261.00118,22.12893,-1.26956,92.31835,0.00E+00,70,-1.76689,1
261.50006,22.17906,-1.27264,92.23767,0.00E+00,70,-1.78376,1
261.99893,22.22915,-1.27508,92.15067,0.00E+00,70,-1.79849,1
262.4978,22.27924,-1.27866,92.05738,0.00E+00,70,-1.8121,1
262.99668,22.32934,-1.28268,91.95508,0.00E+00,70,-1.82577,1
263.49555,22.37947,-1.2864,91.8615,0.00E+00,70,-1.84054,1
263.99443,22.42959,-1.29065,91.7819,0.00E+00,70,-1.85715,1
264.4933,22.47973,-1.29362,91.69723,0.00E+00,70,-1.87583,1
264.99217,22.52978,-1.297,91.60656,0.00E+00,70,-1.89621,1
265.49105,22.57986,-1.30039,91.51939,0.00E+00,70,-1.91755,1
265.98992,22.62992,-1.30394,91.42863,0.00E+00,70,-1.93886,1
266.4888,22.67996,-1.30804,91.30797,0.00E+00,70,-1.95919,1
266.98767,22.72996,-1.3117,91.19814,0.00E+00,70,-1.97801,1
267.48654,22.77999,-1.31576,91.09485,0.00E+00,70,-1.99537,1
267.98542,22.82995,-1.3189,90.99881,0.00E+00,70,-2.0119,1
268.48429,22.87994,-1.32308,90.90675,0.00E+00,70,-2.02878,1
268.98317,22.93,-1.3259,90.79765,0.00E+00,70,-2.04737,1
269.48204,22.98011,-1.32912,90.69933,0.00E+00,70,-2.06891,1
269.98091,23.03026,-1.33293,90.60007,0.00E+00,70,-2.09413,1
270.47979,23.08048,-1.33622,90.4996,0.00E+00,70,-2.12311,1
270.97866,23.1307,-1.34034,90.40533,0.00E+00,70,-2.15507,1
271.47754,23.18089,-1.34275,90.31007,0.00E+00,70,-2.18864,1
271.97641,23.23109,-1.34623,90.19783,0.00E+00,70,-2.22215,1
272.47528,23.28129,-1.34975,90.066,0.00E+00,70,-2.25389,1
272.97416,23.33148,-1.35321,89.93443,0.00E+00,70,-2.28254,1
273.47303,23.38166,-1.3567,89.80035,0.00E+00,70,-2.30727,1
273.97191,23.43176,-1.36095,89.69603,0.00E+00,70,-2.32782,1
274.47078,23.48181,-1.36458,89.59696,0.00E+00,70,-2.34446,1
274.96965,23.53181,-1.36776,89.47636,0.00E+00,70,-2.35774,1
275.46853,23.58176,-1.37053,89.36193,0.00E+00,70,-2.3684,1
275.9674,23.63174,-1.37408,89.22711,0.00E+00,70,-2.37721,1
276.46628,23.68177,-1.3773,89.10078,0.00E+00,70,-2.38495,1
276.96515,23.73186,-1.38032,88.99151,0.00E+00,70,-2.39237,1
277.46402,23.78207,-1.38408,88.87802,0.00E+00,70,-2.40027,1
277.9629,23.83231,-1.3874,88.74087,0.00E+00,70,-2.40943,1
278.46177,23.88258,-1.39084,88.61918,0.00E+00,70,-2.42065,1
278.96065,23.93288,-1.39398,88.52036,0.00E+00,70,-2.43466,1
279.45952,23.98316,-1.3973,88.40355,0.00E+00,70,-2.45201,1
279.95839,24.03332,-1.40077,88.26709,0.00E+00,70,-2.47301,1
280.45727,24.08349,-1.40413,88.14671,0.00E+00,70,-2.49773,1
280.95614,24.13367,-1.40657,88.01374,0.00E+00,70,-2.52595,1
281.45502,24.18387,-1.40947,87.88522,0.00E+00,70,-2.55714,1
281.95389,24.2341,-1.41306,87.78534,0.00E+00,70,-2.5906,1
282.45276,24.28439,-1.41673,87.66782,0.00E+00,70,-2.62551,1
282.95164,24.33472,-1.41943,87.50961,0.00E+00,70,-2.661,1
283.45051,24.38497,-1.42289,87.35888,0.00E+00,70,-2.69615,1
283.94939,24.4352,-1.42648,87.2151,0.00E+00,70,-2.73035,1
284.44826,24.48545,-1.42944,87.08284,0.00E+00,70,-2.76302,1
284.94713,24.53567,-1.43282,86.9601,0.00E+00,70,-2.79371,1
285.44601,24.58583,-1.43619,86.83261,0.00E+00,70,-2.82204,1
285.94488,24.63604,-1.43902,86.6806,0.00E+00,70,-2.84788,1
286.44376,24.68616,-1.44254,86.51895,0.00E+00,70,-2.87115,1
286.94263,24.73623,-1.44484,86.36298,0.00E+00,70,-2.89219,1
287.4415,24.78638,-1.44802,86.22286,0.00E+00,70,-2.9118,1
287.94038,24.83655,-1.45256,86.0735,0.00E+00,70,-2.93122,1
288.43925,24.88673,-1.45477,85.93999,0.00E+00,70,-2.95219,1
288.93813,24.93708,-1.45803,85.78897,0.00E+00,70,-2.97685,1
289.437,24.98747,-1.46243,85.63596,0.00E+00,70,-3.00713,1
289.93587,25.03781,-1.46479,85.48142,0.00E+00,70,-3.04436,1
290.43475,25.08817,-1.46883,85.33862,0.00E+00,70,-3.08881,1
290.93362,25.13854,-1.47168,85.18564,0.00E+00,70,-3.13916,1
291.4325,25.18877,-1.47428,85.02959,0.00E+00,70,-3.19226,1
291.93137,25.23897,-1.47694,84.9126,0.00E+00,70,-3.24394,1
292.43024,25.28919,-1.47953,84.80058,0.00E+00,70,-3.28945,1
292.92912,25.33935,-1.48198,84.6129,0.00E+00,70,-3.32448,1
293.42799,25.38944,-1.48572,84.3218,0.00E+00,70,-3.34639,1
293.92687,25.43956,-1.48909,84.08306,0.00E+00,70,-3.35486,1
294.42574,25.48969,-1.49225,83.92792,0.00E+00,70,-3.35198,1
294.92461,25.53979,-1.49523,83.79787,0.00E+00,70,-3.34186,1
295.42349,25.58997,-1.49774,83.66508,0.00E+00,70,-3.32973,1
295.92236,25.64023,-1.49974,83.52551,0.00E+00,70,-3.32084,1
296.42124,25.69057,-1.50339,83.35634,0.00E+00,70,-3.31958,1
296.92011,25.74091,-1.50576,83.18486,0.00E+00,70,-3.32878,1
297.41898,25.79132,-1.50963,83.02924,0.00E+00,70,-3.34973,1
297.91786,25.84164,-1.51214,82.85559,0.00E+00,70,-3.38214,1
298.41673,25.89195,-1.51521,82.68643,0.00E+00,70,-3.42485,1
298.91561,25.94219,-1.51784,82.52559,0.00E+00,70,-3.4759,1
299.41448,25.99244,-1.52132,82.35683,0.00E+00,70,-3.5331,1
299.91335,26.04263,-1.52454,82.16589,0.00E+00,70,-3.59369,1
300.41223,26.09292,-1.52712,81.98629,0.00E+00,70,-3.65495,1
300.9111,26.14314,-1.52899,81.80973,0.00E+00,70,-3.71366,1
301.40998,26.19339,-1.53134,81.63215,0.00E+00,70,-3.76716,1
301.90885,26.24372,-1.53344,81.45525,0.00E+00,70,-3.81337,1
302.40772,26.29411,-1.53704,81.2541,0.00E+00,70,-3.85136,1
302.9066,26.34446,-1.5403,80.97497,0.00E+00,70,-3.88158,1
303.40547,26.39488,-1.54217,80.72735,0.00E+00,70,-3.90602,1
303.90435,26.44525,-1.54389,80.55745,0.00E+00,70,-3.92738,1
304.40322,26.49545,-1.54749,80.41847,0.00E+00,70,-3.94854,1
304.90209,26.54558,-1.54919,80.26002,0.00E+00,70,-3.9718,1
305.40097,26.59572,-1.55113,80.08022,0.00E+00,70,-3.99835,1
305.89984,26.64587,-1.55367,79.86516,0.00E+00,70,-4.02816,1
306.39872,26.69606,-1.55509,79.63391,0.00E+00,70,-4.06036,1
306.89759,26.74635,-1.55823,79.39256,0.00E+00,70,-4.09373,1
307.39646,26.79665,-1.5602,79.19659,0.00E+00,70,-4.1272,1
307.89534,26.84695,-1.5618,78.99859,0.00E+00,70,-4.16031,1
308.39421,26.89722,-1.56438,78.78927,0.00E+00,70,-4.19326,1
308.89309,26.94747,-1.56616,78.574,0.00E+00,70,-4.22676,1
309.39196,26.99771,-1.56829,78.37036,0.00E+00,70,-4.26169,1
309.89083,27.04798,-1.57072,78.17061,0.00E+00,70,-4.29882,1
310.38971,27.09818,-1.57144,77.94933,0.00E+00,70,-4.33852,1
310.88858,27.14837,-1.57406,77.73164,0.00E+00,70,-4.38095,1
311.38746,27.19856,-1.57639,77.5124,0.00E+00,70,-4.42599,1
311.88633,27.24875,-1.57699,77.29588,0.00E+00,70,-4.47338,1
312.3852,27.29893,-1.58005,77.02301,0.00E+00,70,-4.52277,1
312.88408,27.34911,-1.58185,76.80974,0.00E+00,70,-4.57369,1
313.38295,27.39934,-1.58307,76.60704,0.00E+00,70,-4.62547,1
313.88183,27.44957,-1.58575,76.39471,0.00E+00,70,-4.67703,1
314.3807,27.49976,-1.58658,76.16922,0.00E+00,70,-4.72705,1
314.87957,27.54993,-1.58946,75.8951,0.00E+00,70,-4.77421,1
315.37845,27.60018,-1.59091,75.63392,0.00E+00,70,-4.8175,1
315.87732,27.65031,-1.59358,75.38564,0.00E+00,70,-4.8561,1
316.3762,27.7004,-1.59368,75.15213,0.00E+00,70,-4.89013,1
316.87507,27.75048,-1.59554,74.88387,0.00E+00,70,-4.92034,1
317.37394,27.80059,-1.59667,74.6627,0.00E+00,70,-4.94792,1
317.87282,27.8506,-1.59863,74.40775,0.00E+00,70,-4.97426,1
318.37169,27.90071,-1.59944,74.1516,0.00E+00,70,-5.00082,1
318.87057,27.95087,-1.60037,73.90997,0.00E+00,70,-5.02865,1
319.36944,28.00101,-1.60119,73.66524,0.00E+00,70,-5.05835,1
319.86831,28.05114,-1.60192,73.40757,0.00E+00,70,-5.09006,1
320.36719,28.10134,-1.60305,73.1641,0.00E+00,70,-5.12357,1
320.86606,28.15154,-1.60399,72.89296,0.00E+00,70,-5.15832,1
321.36494,28.20177,-1.60564,72.61905,0.00E+00,70,-5.19363,1
321.86381,28.25209,-1.60621,72.36877,0.00E+00,70,-5.22885,1
322.36268,28.30245,-1.60646,72.11049,0.00E+00,70,-5.26335,1
322.86156,28.35277,-1.60759,71.84474,0.00E+00,70,-5.29664,1
323.36043,28.40309,-1.60799,71.57617,0.00E+00,70,-5.32857,1
323.85931,28.45333,-1.60906,71.30441,0.00E+00,70,-5.35929,1
324.35818,28.5035,-1.60994,71.02998,0.00E+00,70,-5.38936,1
324.85705,28.55365,-1.61028,70.73476,0.00E+00,70,-5.41965,1
325.35593,28.60382,-1.61154,70.47226,0.00E+00,70,-5.45125,1
325.8548,28.65395,-1.61219,70.22104,0.00E+00,70,-5.4851,1
326.35368,28.7042,-1.61255,69.95506,0.00E+00,70,-5.522,1
326.85255,28.75446,-1.61366,69.66274,0.00E+00,70,-5.56209,1
327.35142,28.80474,-1.61372,69.3781,0.00E+00,70,-5.60489,1
327.8503,28.85502,-1.61403,69.11383,0.00E+00,70,-5.64938,1
328.34917,28.90541,-1.61459,68.8339,0.00E+00,70,-5.69416,1
328.84805,28.95568,-1.61667,68.55451,0.00E+00,70,-5.73744,1
329.34692,29.00599,-1.61747,68.24233,0.00E+00,70,-5.778,1
329.84579,29.05629,-1.61784,67.92603,0.00E+00,70,-5.8149,1
330.34467,29.10659,-1.61808,67.63078,0.00E+00,70,-5.84799,1
330.84354,29.15679,-1.61887,67.33818,0.00E+00,70,-5.8777,1
331.34242,29.20711,-1.61931,67.05445,0.00E+00,70,-5.90523,1
331.84129,29.25738,-1.61904,66.76129,0.00E+00,70,-5.93183,1
332.34016,29.30766,-1.62032,66.45222,0.00E+00,70,-5.9589,1
332.83904,29.35793,-1.62047,66.1585,0.00E+00,70,-5.98753,1
333.33791,29.40827,-1.6207,65.85514,0.00E+00,70,-6.01846,1
333.83679,29.45855,-1.62153,65.55521,0.00E+00,70,-6.05182,1
334.33566,29.50886,-1.62186,65.25057,0.00E+00,70,-6.08742,1
334.83453,29.5592,-1.62191,64.97158,0.00E+00,70,-6.12462,1
335.33341,29.60955,-1.62133,64.65179,0.00E+00,70,-6.16261,1
335.83228,29.65989,-1.62089,64.31251,0.00E+00,70,-6.20049,1
336.33116,29.71019,-1.62167,63.99409,0.00E+00,70,-6.23754,1
336.83003,29.76045,-1.62155,63.69562,0.00E+00,70,-6.27325,1
337.3289,29.81066,-1.62125,63.38435,0.00E+00,70,-6.3075,1
337.82778,29.86086,-1.62021,63.08002,0.00E+00,70,-6.34051,1
338.32665,29.91106,-1.62092,62.74876,0.00E+00,70,-6.37283,1
338.82553,29.96125,-1.62007,62.3966,0.00E+00,70,-6.40523,1
339.3244,30.01145,-1.61967,62.07817,0.00E+00,70,-6.43864,1
339.82327,30.06165,-1.61973,61.76778,0.00E+00,70,-6.47388,1
340.32215,30.11184,-1.61942,61.46365,0.00E+00,70,-6.51155,1
340.82102,30.16199,-1.61854,61.14184,0.00E+00,70,-6.55185,1
341.3199,30.21214,-1.6169,60.81307,0.00E+00,70,-6.59461,1
341.81877,30.26234,-1.61667,60.46637,0.00E+00,70,-6.63936,1
342.31764,30.3126,-1.61571,60.12514,0.00E+00,70,-6.68541,1
342.81652,30.36288,-1.61486,59.79143,0.00E+00,70,-6.732,1
343.31539,30.41319,-1.61346,59.47152,0.00E+00,70,-6.77861,1
343.81427,30.46353,-1.61198,59.11705,0.00E+00,70,-6.82496,1
344.31314,30.51381,-1.61153,58.75294,0.00E+00,70,-6.87105,1
344.81201,30.56404,-1.60935,58.40853,0.00E+00,70,-6.91717,1
345.31089,30.61422,-1.60816,58.07254,0.00E+00,70,-6.96377,1
345.80976,30.66442,-1.60648,57.72754,0.00E+00,70,-7.01139,1
346.30864,30.71459,-1.60462,57.38095,0.00E+00,70,-7.06039,1
346.80751,30.76475,-1.60261,57.0235,0.00E+00,70,-7.11108,1
347.30638,30.81491,-1.60078,56.65607,0.00E+00,70,-7.16364,1
347.80526,30.86508,-1.59794,56.29845,0.00E+00,70,-7.21815,1
348.30413,30.91525,-1.59567,55.93485,0.00E+00,70,-7.27448,1
348.80301,30.96549,-1.59299,55.56614,0.00E+00,70,-7.33254,1
349.30188,31.01576,-1.59119,55.20381,0.00E+00,70,-7.39195,1
349.80075,31.06605,-1.58822,54.83172,0.00E+00,70,-7.45233,1
350.29963,31.11638,-1.58505,54.47052,0.00E+00,70,-7.51338,1
350.7985,31.16667,-1.58115,54.08979,0.00E+00,70,-7.57486,1
351.29738,31.21687,-1.57811,53.69384,0.00E+00,70,-7.6368,1
351.79625,31.26704,-1.57472,53.28208,0.00E+00,70,-7.69965,1
352.29512,31.31725,-1.56997,52.89784,0.00E+00,70,-7.76406,1
352.794,31.36745,-1.56653,52.51891,0.00E+00,70,-7.83059,1
353.29287,31.41769,-1.56222,52.1407,0.00E+00,70,-7.8997,1
353.79175,31.46799,-1.5572,51.76701,0.00E+00,70,-7.97159,1
354.29062,31.51826,-1.55192,51.36457,0.00E+00,70,-8.04595,1
354.78949,31.56845,-1.54838,50.93372,0.00E+00,70,-8.12231,1
355.28837,31.6186,-1.54385,50.51641,0.00E+00,70,-8.20035,1
355.78724,31.66877,-1.53872,50.09922,0.00E+00,70,-8.27984,1
356.28612,31.71891,-1.53358,49.68503,0.00E+00,70,-8.36068,1
356.78499,31.7692,-1.52804,49.27368,0.00E+00,70,-8.44315,1
357.28386,31.81963,-1.52281,48.84168,0.00E+00,70,-8.52731,1
357.78274,31.87009,-1.51778,48.41841,0.00E+00,70,-8.6128,1
358.28161,31.92054,-1.51248,47.99942,0.00E+00,70,-8.69909,1
358.78049,31.97102,-1.5079,47.54452,0.00E+00,70,-8.78548,1
359.27936,32.02143,-1.50403,47.10272,0.00E+00,70,-8.87087,1
359.77823,32.07173,-1.49865,46.64469,0.00E+00,70,-8.95425,1
360.27711,32.12197,-1.49163,46.17443,0.00E+00,70,-9.03493,1
360.77598,32.17223,-1.48507,45.71663,0.00E+00,70,-9.11251,1
361.27486,32.22245,-1.47877,45.26954,0.00E+00,70,-9.18665,1
361.77373,32.27261,-1.47155,44.82143,0.00E+00,70,-9.25725,1
362.2726,32.32282,-1.46524,44.33609,0.00E+00,70,-9.32443,1
362.77148,32.37302,-1.45805,43.85642,0.00E+00,70,-9.38809,1
363.27035,32.42317,-1.45149,43.39353,0.00E+00,70,-9.44809,1
363.76923,32.47336,-1.44461,42.92652,0.00E+00,70,-9.50443,1
364.2681,32.52357,-1.43763,42.43115,0.00E+00,70,-9.55692,1
364.76697,32.57379,-1.43091,41.94337,0.00E+00,70,-9.60543,1
365.26585,32.62411,-1.42255,41.45744,0.00E+00,70,-9.64996,1
365.76472,32.67448,-1.4155,40.96687,0.00E+00,70,-9.69031,1
366.2636,32.72484,-1.40857,40.48669,0.00E+00,70,-9.72619,1
366.76247,32.77522,-1.40002,39.99821,0.00E+00,70,-9.75719,1
367.26134,32.82554,-1.3932,39.50183,0.00E+00,70,-9.78259,1
367.76022,32.87579,-1.38565,39.00028,0.00E+00,70,-9.80147,1
368.25909,32.92605,-1.37841,38.49524,0.00E+00,70,-9.81274,1
368.75797,32.97628,-1.37166,38.00378,0.00E+00,70,-9.81519,1
369.25684,33.02646,-1.36384,37.52195,0.00E+00,70,-9.80763,1
369.75571,33.07667,-1.35773,37.01848,0.00E+00,70,-9.789,1
370.25459,33.1269,-1.35136,36.51192,0.00E+00,70,-9.75846,1
370.75346,33.17709,-1.34566,35.99963,0.00E+00,70,-9.71548,1
371.25234,33.22729,-1.33935,35.50135,0.00E+00,70,-9.65966,1
371.75121,33.27759,-1.33282,35.03083,0.00E+00,70,-9.59069,1
372.25008,33.32792,-1.32709,34.56225,0.00E+00,70,-9.50849,1
372.74896,33.37821,-1.32212,34.07451,0.00E+00,70,-9.41308,1
373.24783,33.42853,-1.31777,33.57543,0.00E+00,70,-9.30419,1
373.74671,33.47883,-1.31276,33.09628,0.00E+00,70,-9.18175,1
374.24558,33.529,-1.30817,32.63846,0.00E+00,70,-9.04584,1
374.74445,33.57913,-1.304,32.19294,0.00E+00,70,-8.89611,1
375.24333,33.62933,-1.30139,31.74857,0.00E+00,70,-8.73195,1
375.7422,33.67953,-1.29836,31.30216,0.00E+00,70,-8.55347,1
376.24108,33.72974,-1.2967,30.86242,0.00E+00,70,-8.36045,1
376.73995,33.77996,-1.2946,30.43369,0.00E+00,70,-8.15284,1
377.23882,33.83018,-1.29306,30.021,0.00E+00,70,-7.93085,1
377.7377,33.88032,-1.29294,29.63574,0.00E+00,70,-7.69507,1
378.23657,33.93043,-1.29273,29.25141,0.00E+00,70,-7.4456,1
378.73545,33.98051,-1.29266,28.87307,0.00E+00,70,-7.18292,1
379.23432,34.03061,-1.29441,28.50673,0.00E+00,70,-6.90728,1
379.73319,34.08066,-1.29629,28.1521,0.00E+00,70,-6.6198,1
380.23207,34.1307,-1.29763,27.8322,0.00E+00,70,-6.32142,1
380.73094,34.18072,-1.3012,27.53824,0.00E+00,70,-6.0137,1
381.22982,34.23074,-1.30581,27.22706,0.00E+00,70,-5.69875,1
381.72869,34.28073,-1.30835,26.95131,0.00E+00,70,-5.37976,1
382.22756,34.33074,-1.31255,26.67153,0.00E+00,70,-5.06019,1
382.72644,34.38077,-1.31749,26.40233,0.00E+00,70,-4.74422,1
383.22531,34.43078,-1.32387,26.17997,0.00E+00,70,-4.43619,1
383.72419,34.48076,-1.32996,25.99943,0.00E+00,70,-4.13969,1
384.22306,34.5307,-1.33615,25.83263,0.00E+00,70,-3.85716,1
384.72193,34.58064,-1.34253,25.68337,0.00E+00,70,-3.58939,1
385.22081,34.6306,-1.34863,25.51791,0.00E+00,70,-3.33579,1
385.71968,34.68059,-1.35592,25.34625,0.00E+00,70,-3.09503,1
386.21856,34.73056,-1.36184,25.18801,0.00E+00,70,-2.86553,1
386.71743,34.78051,-1.36869,25.04769,0.00E+00,70,-2.64587,1
387.2163,34.83041,-1.37595,24.90822,0.00E+00,70,-2.43571,1
387.71518,34.88023,-1.38106,24.79366,0.00E+00,70,-2.23566,1
388.21405,34.93002,-1.38646,24.6982,0.00E+00,70,-2.04703,1
388.71293,34.97979,-1.39302,24.61006,0.00E+00,70,-1.87181,1
389.2118,35.02959,-1.39863,24.54237,0.00E+00,70,-1.71207,1
389.71067,35.07945,-1.40365,24.48618,0.00E+00,70,-1.56943,1
390.20955,35.12938,-1.40707,24.42276,0.00E+00,70,-1.44482,1
390.70842,35.17935,-1.41154,24.3532,0.00E+00,70,-1.3382,1
391.2073,35.22936,-1.41539,24.30089,0.00E+00,70,-1.2486,1
391.70617,35.27935,-1.41996,24.24424,0.00E+00,70,-1.17429,1
392.20504,35.32935,-1.42263,24.19907,0.00E+00,70,-1.11304,1
392.70392,35.37932,-1.42582,24.15096,0.00E+00,70,-1.06266,1
393.20279,35.42925,-1.42838,24.09934,0.00E+00,70,-1.02108,1
393.70167,35.47923,-1.43064,24.05138,0.00E+00,70,-0.9866,1
394.20054,35.52928,-1.43369,23.9962,0.00E+00,70,-0.95808,1
394.69941,35.57934,-1.43512,23.94173,0.00E+00,70,-0.93481,1
395.19829,35.62947,-1.43714,23.90028,0.00E+00,70,-0.91635,1
395.69716,35.67962,-1.43938,23.86809,0.00E+00,70,-0.90236,1
396.19604,35.72978,-1.44068,23.83513,0.00E+00,70,-0.89244,1
396.69491,35.77995,-1.44292,23.79263,0.00E+00,70,-0.88592,1
397.19378,35.83009,-1.44511,23.74328,0.00E+00,70,-0.88192,1
397.69266,35.88016,-1.44603,23.70169,0.00E+00,70,-0.87934,1
398.19153,35.93026,-1.44758,23.64979,0.00E+00,70,-0.87705,1
398.69041,35.98029,-1.44965,23.60525,0.00E+00,70,-0.87399,1
399.18928,36.03027,-1.45139,23.56836,0.00E+00,70,-0.86934,1
399.68815,36.08033,-1.45297,23.50986,0.00E+00,70,-0.86256,1
400.18703,36.13044,-1.45445,23.46919,0.00E+00,70,-0.85342,1
400.6859,36.18057,-1.45636,23.43005,0.00E+00,70,-0.84203,1
401.18478,36.23076,-1.45823,23.38353,0.00E+00,70,-0.82872,1
401.68365,36.28095,-1.46015,23.34022,0.00E+00,70,-0.81406,1
402.18252,36.33108,-1.46169,23.30256,0.00E+00,70,-0.79873,1
402.6814,36.38121,-1.46279,23.27002,0.00E+00,70,-0.7835,1
403.18027,36.43134,-1.46446,23.22125,0.00E+00,70,-0.76914,1
403.67915,36.48142,-1.46624,23.17641,0.00E+00,70,-0.75638,1
404.17802,36.53152,-1.4677,23.14474,0.00E+00,70,-0.74577,1
404.67689,36.58164,-1.46893,23.1188,0.00E+00,70,-0.73765,1
405.17577,36.6317,-1.47174,23.08852,0.00E+00,70,-0.73207,1
405.67464,36.68173,-1.47352,23.05779,0.00E+00,70,-0.72879,1
406.17352,36.73182,-1.47472,23.01829,0.00E+00,70,-0.72731,1
406.67239,36.78196,-1.47576,22.96663,0.00E+00,70,-0.72704,1
407.17126,36.83202,-1.47692,22.93449,0.00E+00,70,-0.72734,1
407.67014,36.88211,-1.47798,22.90408,0.00E+00,70,-0.72768,1
408.16901,36.93216,-1.47974,22.86876,0.00E+00,70,-0.7277,1
408.66789,36.9821,-1.48135,22.82853,0.00E+00,70,-0.72724,1
409.16676,37.03197,-1.4824,22.78667,0.00E+00,70,-0.72635,1
409.66563,37.08192,-1.48361,22.75276,0.00E+00,70,-0.72517,1
410.16451,37.13191,-1.48437,22.71418,0.00E+00,70,-0.72394,1
410.66338,37.18193,-1.48507,22.68388,0.00E+00,70,-0.72282,1
411.16226,37.23202,-1.48554,22.65055,0.00E+00,70,-0.72193,1
411.66113,37.28212,-1.48633,22.61268,0.00E+00,70,-0.72122,1
412.16,37.33217,-1.48743,22.57031,0.00E+00,70,-0.72054,1
412.65888,37.38213,-1.48823,22.54159,0.00E+00,70,-0.71967,1
413.15775,37.43209,-1.488,22.5144,0.00E+00,70,-0.71841,1
413.65663,37.48207,-1.48862,22.47076,0.00E+00,70,-0.71665,1
414.1555,37.53206,-1.48966,22.41666,0.00E+00,70,-0.71444,1
414.65437,37.58206,-1.48994,22.38392,0.00E+00,70,-0.71201,1
415.15325,37.6321,-1.48983,22.35878,0.00E+00,70,-0.70971,1
415.65212,37.6821,-1.48997,22.32996,0.00E+00,70,-0.70792,1
416.151,37.73208,-1.49002,22.28721,0.00E+00,70,-0.70696,1
416.64987,37.78207,-1.49127,22.25186,0.00E+00,70,-0.70695,1
417.14874,37.83211,-1.4924,22.2193,0.00E+00,70,-0.70776,1
417.64762,37.88216,-1.49204,22.18814,0.00E+00,70,-0.709,1
418.14649,37.93224,-1.49137,22.15315,0.00E+00,70,-0.71014,1
418.64537,37.98233,-1.49089,22.12399,0.00E+00,70,-0.71056,1
419.14424,38.03233,-1.49195,22.08645,0.00E+00,70,-0.70978,1
419.64311,38.08224,-1.49076,22.02749,0.00E+00,70,-0.70757,1
420.14199,38.13216,-1.48826,21.99331,0.00E+00,70,-0.70396,1
420.64086,38.18205,-1.48569,21.95978,0.00E+00,70,-0.69931,1
421.13974,38.23189,-1.48337,21.92864,0.00E+00,70,-0.69415,1
421.63861,38.28179,-1.48318,21.90647,0.00E+00,70,-0.68908,1
422.13748,38.33168,-1.48269,21.86675,0.00E+00,70,-0.68465,1
422.63636,38.3815,-1.48111,21.8317,0.00E+00,70,-0.68122,1
423.13523,38.43132,-1.48034,21.79639,0.00E+00,70,-0.67892,1
423.63411,38.48114,-1.47963,21.76595,0.00E+00,70,-0.67765,1
424.13298,38.53093,-1.47867,21.73966,0.00E+00,70,-0.67715,1
424.63185,38.58074,-1.47769,21.70029,0.00E+00,70,-0.67707,1
425.13073,38.63061,-1.47666,21.66322,0.00E+00,70,-0.67704,1
425.6296,38.68053,-1.4756,21.63027,0.00E+00,70,-0.6768,1
426.12848,38.73046,-1.47439,21.60237,0.00E+00,70,-0.67621,1
426.62735,38.78038,-1.47405,21.55812,0.00E+00,70,-0.67524,1
427.12622,38.83031,-1.47249,21.51992,0.00E+00,70,-0.67398,1
427.6251,38.88021,-1.47018,21.49453,0.00E+00,70,-0.67253,1
428.12397,38.93005,-1.46932,21.46314,0.00E+00,70,-0.67097,1
428.62285,38.97994,-1.46787,21.43591,0.00E+00,70,-0.66926,1
429.12172,39.02991,-1.46602,21.39185,0.00E+00,70,-0.6673,1
429.62059,39.07987,-1.46513,21.36349,0.00E+00,70,-0.66489,1
430.11947,39.12985,-1.46339,21.33184,0.00E+00,70,-0.66181,1
430.61834,39.17985,-1.46153,21.29559,0.00E+00,70,-0.65791,1
431.11722,39.22983,-1.45952,21.25803,0.00E+00,70,-0.65319,1
431.61609,39.27976,-1.45799,21.22399,0.00E+00,70,-0.6478,1
432.11496,39.32969,-1.45653,21.19299,0.00E+00,70,-0.6421,1
432.61384,39.37966,-1.45371,21.15856,0.00E+00,70,-0.63655,1
433.11271,39.42963,-1.45074,21.13275,0.00E+00,70,-0.63165,1
433.61159,39.47959,-1.44818,21.10088,0.00E+00,70,-0.62783,1
434.11046,39.52956,-1.44667,21.06996,0.00E+00,70,-0.62534,1
434.60933,39.57952,-1.44461,21.0435,0.00E+00,70,-0.62417,1
435.10821,39.62942,-1.44263,21.01344,0.00E+00,70,-0.62406,1
435.60708,39.67931,-1.44094,20.9866,0.00E+00,70,-0.6245,1
436.10596,39.72921,-1.43771,20.94889,0.00E+00,70,-0.62486,1
436.60483,39.77912,-1.43495,20.91968,0.00E+00,70,-0.62448,1
437.1037,39.82904,-1.43323,20.88897,0.00E+00,70,-0.62284,1
437.60258,39.87897,-1.42971,20.84915,0.00E+00,70,-0.61967,1
438.10145,39.92889,-1.42591,20.82121,0.00E+00,70,-0.61498,1
438.60033,39.97877,-1.42387,20.78253,0.00E+00,70,-0.60913,1
439.0992,40.02862,-1.42102,20.74955,0.00E+00,70,-0.60269,1
439.59807,40.07843,-1.41643,20.72563,0.00E+00,70,-0.59634,1
440.09695,40.12823,-1.41257,20.69962,0.00E+00,70,-0.5908,1
440.59582,40.17806,-1.40934,20.67543,0.00E+00,70,-0.58664,1
441.0947,40.22789,-1.40526,20.64822,0.00E+00,70,-0.58423,1
441.59357,40.27776,-1.40144,20.61935,0.00E+00,70,-0.58369,1
442.09244,40.32769,-1.39752,20.58819,0.00E+00,70,-0.58487,1
442.59132,40.37765,-1.39353,20.55588,0.00E+00,70,-0.58737,1
443.09019,40.42763,-1.38987,20.52807,0.00E+00,70,-0.59057,1
443.58907,40.47764,-1.38599,20.50339,0.00E+00,70,-0.59375,1
444.08794,40.52765,-1.38363,20.48006,0.00E+00,70,-0.59612,1
444.58681,40.57766,-1.38064,20.44609,0.00E+00,70,-0.59699,1
445.08569,40.62762,-1.37727,20.41383,0.00E+00,70,-0.59587,1
445.58456,40.67751,-1.37391,20.37077,0.00E+00,70,-0.59258,1
446.08344,40.72734,-1.36979,20.33728,0.00E+00,70,-0.58726,1
446.58231,40.77711,-1.36572,20.30994,0.00E+00,70,-0.58035,1
447.08118,40.82683,-1.36112,20.27624,0.00E+00,70,-0.57248,1
447.58006,40.87649,-1.35589,20.2584,0.00E+00,70,-0.56433,1
448.07893,40.92616,-1.35086,20.24256,0.00E+00,70,-0.55646,1
448.57781,40.97588,-1.34626,20.20701,0.00E+00,70,-0.54926,1
449.07668,41.02562,-1.34034,20.17832,0.00E+00,70,-0.5429,1
449.57555,41.07539,-1.3354,20.15322,0.00E+00,70,-0.53734,1
450.07443,41.12526,-1.32965,20.1241,0.00E+00,70,-0.53243,1
450.5733,41.1752,-1.32344,20.10634,0.00E+00,70,-0.528,1
451.07218,41.22512,-1.31826,20.07375,0.00E+00,70,-0.52395,1
451.57105,41.27506,-1.31194,20.03775,0.00E+00,70,-0.52027,1
452.06992,41.32498,-1.30523,20.01586,0.00E+00,70,-0.51702,1
452.5688,41.37481,-1.29887,19.99684,0.00E+00,70,-0.51434,1
453.06767,41.42459,-1.29292,19.97673,0.00E+00,70,-0.51238,1
453.56655,41.47433,-1.28613,19.95066,0.00E+00,70,-0.51119,1
454.06542,41.52404,-1.27955,19.91929,0.00E+00,70,-0.51079,1
454.56429,41.57377,-1.27342,19.89569,0.00E+00,70,-0.51106,1
455.06317,41.62352,-1.2663,19.86697,0.00E+00,70,-0.5118,1
455.56204,41.67326,-1.25851,19.84292,0.00E+00,70,-0.51273,1
456.06092,41.72303,-1.25064,19.82892,0.00E+00,70,-0.51353,1
456.55979,41.77281,-1.24311,19.79809,0.00E+00,70,-0.51389,1
457.05866,41.82256,-1.23582,19.76714,0.00E+00,70,-0.51358,1
457.55754,41.87234,-1.22869,19.74431,0.00E+00,70,-0.51243,1
458.05641,41.92215,-1.22129,19.71197,0.00E+00,70,-0.51045,1
458.55529,41.97199,-1.21292,19.68273,0.00E+00,70,-0.50772,1
459.05416,42.02185,-1.20566,19.66423,0.00E+00,70,-0.50437,1
459.55303,42.07177,-1.19756,19.63609,0.00E+00,70,-0.50053,1
460.05191,42.12171,-1.18936,19.60983,0.00E+00,70,-0.49624,1
460.55078,42.17164,-1.18143,19.59922,0.00E+00,70,-0.49145,1
461.04966,42.22153,-1.1733,19.57756,0.00E+00,70,-0.48603,1
461.54853,42.27137,-1.16698,19.54018,0.00E+00,70,-0.47982,1
462.0474,42.32117,-1.15932,19.51022,0.00E+00,70,-0.4727,1
462.54628,42.37088,-1.15102,19.48414,0.00E+00,70,-0.46465,1
463.04515,42.42062,-1.14448,19.46404,0.00E+00,70,-0.45577,1
463.54403,42.47041,-1.13702,19.44595,0.00E+00,70,-0.44624,1
464.0429,42.52022,-1.12919,19.42307,0.00E+00,70,-0.43637,1
464.54177,42.57001,-1.12171,19.40431,0.00E+00,70,-0.4265,1
465.04065,42.61982,-1.11369,19.38779,0.00E+00,70,-0.417,1
465.53952,42.66958,-1.10566,19.36337,0.00E+00,70,-0.40826,1
466.0384,42.71928,-1.09852,19.33547,0.00E+00,70,-0.40069,1
466.53727,42.76896,-1.09141,19.31618,0.00E+00,70,-0.39469,1
467.03614,42.81864,-1.08291,19.29878,0.00E+00,70,-0.39062,1
467.53502,42.86836,-1.0761,19.28673,0.00E+00,70,-0.38871,1
468.03389,42.91814,-1.06721,19.27162,0.00E+00,70,-0.389,1
468.53277,42.96795,-1.05958,19.25622,0.00E+00,70,-0.39123,1
469.03164,43.01778,-1.05334,19.23789,0.00E+00,70,-0.39488,1
469.53051,43.06765,-1.0449,19.21611,0.00E+00,70,-0.39916,1
470.02939,43.11743,-1.0366,19.1922,0.00E+00,70,-0.40316,1
470.52826,43.16717,-1.02921,19.17541,0.00E+00,70,-0.406,1
471.02714,43.21691,-1.0205,19.15356,0.00E+00,70,-0.40703,1
471.52601,43.26668,-1.01406,19.12377,0.00E+00,70,-0.4059,1
472.02488,43.31642,-1.00736,19.1036,0.00E+00,70,-0.40265,1
472.52376,43.36624,-0.99975,19.07802,0.00E+00,70,-0.39769,1
473.02263,43.41612,-0.99181,19.05828,0.00E+00,70,-0.39171,1
473.52151,43.46595,-0.984,19.04163,0.00E+00,70,-0.38559,1
474.02038,43.51572,-0.97703,19.02498,0.00E+00,70,-0.38016,1
474.51925,43.5656,-0.96989,19.00845,0.00E+00,70,-0.37606,1
475.01813,43.61547,-0.96218,18.9957,0.00E+00,70,-0.37367,1
475.517,43.66532,-0.95535,18.98123,0.00E+00,70,-0.37305,1
476.01588,43.71526,-0.94839,18.96247,0.00E+00,70,-0.37393,1
476.51475,43.76525,-0.94241,18.93682,0.00E+00,70,-0.37582,1
477.01362,43.81517,-0.93425,18.91457,0.00E+00,70,-0.37806,1
477.5125,43.86514,-0.92778,18.90633,0.00E+00,70,-0.37998,1
478.01137,43.91514,-0.92143,18.88739,0.00E+00,70,-0.38098,1
478.51025,43.96514,-0.9144,18.86149,0.00E+00,70,-0.38058,1
479.00912,44.01522,-0.90795,18.837,0.00E+00,70,-0.37848,1
479.50799,44.06538,-0.90232,18.81499,0.00E+00,70,-0.37456,1
480.00687,44.11549,-0.89484,18.799,0.00E+00,70,-0.36895,1
480.50574,44.16561,-0.88863,18.78233,0.00E+00,70,-0.3619,1
481.00462,44.21574,-0.88332,18.76875,0.00E+00,70,-0.35381,1
481.50349,44.26577,-0.87713,18.74541,0.00E+00,70,-0.34525,1
482.00236,44.31573,-0.87194,18.72083,0.00E+00,70,-0.33677,1
482.50124,44.3657,-0.86534,18.7082,0.00E+00,70,-0.32899,1
483.00011,44.41568,-0.8601,18.69509,0.00E+00,70,-0.3225,1
483.49899,44.46563,-0.85511,18.68621,0.00E+00,70,-0.31778,1
483.99786,44.51558,-0.84917,18.66955,0.00E+00,70,-0.31518,1
484.49673,44.56561,-0.84592,18.65267,0.00E+00,70,-0.31483,1
484.99561,44.61563,-0.84091,18.63855,0.00E+00,70,-0.31661,1
485.49448,44.66566,-0.83442,18.62505,0.00E+00,70,-0.32015,1
485.99336,44.71576,-0.83017,18.61188,0.00E+00,70,-0.32483,1
486.49223,44.7659,-0.82551,18.597,0.00E+00,70,-0.32983,1
486.9911,44.816,-0.82129,18.57993,0.00E+00,70,-0.33426,1
487.48998,44.86613,-0.81651,18.56485,0.00E+00,70,-0.33723,1
487.98885,44.91624,-0.81202,18.54,0.00E+00,70,-0.33801,1
488.48773,44.96632,-0.80855,18.51128,0.00E+00,70,-0.33612,1
488.9866,45.01639,-0.80389,18.49853,0.00E+00,70,-0.33139,1
489.48547,45.06651,-0.80039,18.48662,0.00E+00,70,-0.324,1
489.98435,45.11667,-0.79657,18.46358,0.00E+00,70,-0.3145,1
490.48322,45.16684,-0.7923,18.4468,0.00E+00,70,-0.30371,1
490.9821,45.21697,-0.78997,18.4348,0.00E+00,70,-0.29269,1
491.48097,45.26712,-0.78636,18.41496,0.00E+00,70,-0.28251,1
491.97984,45.31731,-0.78257,18.40353,0.00E+00,70,-0.27417,1
492.47872,45.36746,-0.77952,18.39236,0.00E+00,70,-0.26843,1
492.97759,45.41761,-0.77749,18.38639,0.00E+00,70,-0.26566,1
493.47647,45.4679,-0.77444,18.38281,0.00E+00,70,-0.26581,1
493.97534,45.51819,-0.77147,18.37033,0.00E+00,70,-0.26845,1
494.47421,45.56843,-0.77011,18.35801,0.00E+00,70,-0.27287,1
494.97309,45.61872,-0.76668,18.34024,0.00E+00,70,-0.27827,1
495.47196,45.66901,-0.76518,18.32213,0.00E+00,70,-0.28399,1
495.97084,45.71922,-0.76344,18.30463,0.00E+00,70,-0.28967,1
496.46971,45.76946,-0.7618,18.28251,0.00E+00,70,-0.29531,1
496.96858,45.81975,-0.76113,18.26965,0.00E+00,70,-0.30127,1
497.46746,45.87005,-0.76028,18.25758,0.00E+00,70,-0.30813,1
497.96633,45.92036,-0.7588,18.24596,0.00E+00,70,-0.31653,1
498.46521,45.97074,-0.75851,18.23746,0.00E+00,70,-0.32692,1
498.96408,46.02109,-0.758,18.22197,0.00E+00,70,-0.33941,1
499.46295,46.07138,-0.75585,18.20223,0.00E+00,70,-0.35366,1
499.96183,46.12169,-0.75588,18.18445,0.00E+00,70,-0.36889,1
500.4607,46.17203,-0.75681,18.16881,0.00E+00,70,-0.38393,1
500.95958,46.22233,-0.75678,18.15071,0.00E+00,70,-0.3973,1
501.45845,46.27265,-0.7582,18.1299,0.00E+00,70,-0.40757,1
501.95732,46.32304,-0.759,18.10552,0.00E+00,70,-0.41345,1
502.4562,46.37342,-0.7599,18.07436,0.00E+00,70,-0.41408,1
502.95507,46.42379,-0.76129,18.04229,0.00E+00,70,-0.40917,1
503.45395,46.47423,-0.76218,18.01574,0.00E+00,70,-0.3991,1
503.95282,46.52469,-0.76329,17.99876,0.00E+00,70,-0.38482,1
504.45169,46.57513,-0.76559,17.97625,0.00E+00,70,-0.36774,1
504.95057,46.62556,-0.76813,17.95404,0.00E+00,70,-0.34943,1
505.44944,46.67592,-0.77042,17.94601,0.00E+00,70,-0.33137,1
505.94832,46.72623,-0.7724,17.93742,0.00E+00,70,-0.31469,1
506.44719,46.77651,-0.77505,17.92559,0.00E+00,70,-0.3,1
506.94606,46.82679,-0.77815,17.91253,0.00E+00,70,-0.28741,1
507.44494,46.8771,-0.78122,17.89938,0.00E+00,70,-0.27656,1
507.94381,46.92746,-0.78461,17.88323,0.00E+00,70,-0.26683,1
508.44269,46.97786,-0.78776,17.86727,0.00E+00,70,-0.25751,1
508.94156,47.02829,-0.79274,17.85522,0.00E+00,70,-0.24802,1
509.44043,47.07873,-0.79626,17.84146,0.00E+00,70,-0.238,1
509.93931,47.12919,-0.80046,17.82609,0.00E+00,70,-0.22741,1
510.43818,47.17966,-0.8057,17.81216,0.00E+00,70,-0.21647,1
510.93706,47.23012,-0.80975,17.79874,0.00E+00,70,-0.20561,1
511.43593,47.28061,-0.8147,17.79683,0.00E+00,70,-0.1953,1
511.9348,47.33115,-0.82047,17.79239,0.00E+00,70,-0.18598,1
512.43368,47.38168,-0.82664,17.78103,0.00E+00,70,-0.17801,1
512.93255,47.43222,-0.83271,17.77593,0.00E+00,70,-0.17162,1
513.43143,47.48281,-0.83913,17.76868,0.00E+00,70,-0.16697,1
513.9303,47.53337,-0.84675,17.75718,0.00E+00,70,-0.16422,1
514.42917,47.58392,-0.85215,17.74301,0.00E+00,70,-0.16357,1
514.92805,47.63453,-0.85899,17.73575,0.00E+00,70,-0.16524,1
515.42692,47.68512,-0.86582,17.73455,0.00E+00,70,-0.16946,1
515.9258,47.7357,-0.87369,17.73125,0.00E+00,70,-0.17632,1
516.42467,47.78633,-0.88129,17.72571,0.00E+00,70,-0.1857,1
516.92354,47.83697,-0.88963,17.71325,0.00E+00,70,-0.19717,1
517.42242,47.88758,-0.89787,17.70211,0.00E+00,70,-0.2099,1
517.92129,47.9382,-0.9072,17.69594,0.00E+00,70,-0.22281,1
518.42017,47.98885,-0.91626,17.69119,0.00E+00,70,-0.23464,1
518.91904,48.03946,-0.92576,17.67833,0.00E+00,70,-0.24413,1
519.41791,48.09003,-0.93466,17.6491,0.00E+00,70,-0.25034,1
519.91679,48.14062,-0.94434,17.62998,0.00E+00,70,-0.25276,1
520.41566,48.19118,-0.95411,17.61558,0.00E+00,70,-0.25146,1
520.91454,48.24172,-0.96364,17.59919,0.00E+00,70,-0.24703,1
521.41341,48.29228,-0.97449,17.58497,0.00E+00,70,-0.2405,1
521.91228,48.34284,-0.9854,17.57397,0.00E+00,70,-0.23307,1
522.41116,48.39338,-0.99555,17.56357,0.00E+00,70,-0.22588,1
522.91003,48.44395,-1.00548,17.56317,0.00E+00,70,-0.21977,1
523.40891,48.49452,-1.01611,17.5559,0.00E+00,70,-0.21518,1
523.90778,48.54504,-1.027,17.54765,0.00E+00,70,-0.2121,1
524.40665,48.59559,-1.03807,17.53805,0.00E+00,70,-0.21025,1
524.90553,48.64616,-1.04962,17.52817,0.00E+00,70,-0.20919,1
525.4044,48.69673,-1.06069,17.49984,0.00E+00,70,-0.20859,1
525.90328,48.74726,-1.07306,17.48906,0.00E+00,70,-0.20827,1
526.40215,48.79785,-1.08378,17.48512,0.00E+00,70,-0.20829,1
526.90102,48.84846,-1.09604,17.47579,0.00E+00,70,-0.20886,1
527.3999,48.89912,-1.10656,17.46478,0.00E+00,70,-0.21018,1
527.89877,48.94976,-1.11954,17.46064,0.00E+00,70,-0.21236,1
528.39765,49.0005,-1.13215,17.4538,0.00E+00,70,-0.21532,1
528.89652,49.05124,-1.14369,17.44278,0.00E+00,70,-0.21875,1
529.39539,49.10192,-1.1546,17.42777,0.00E+00,70,-0.22225,1
529.89427,49.15252,-1.16863,17.41561,0.00E+00,70,-0.22544,1
530.39314,49.20315,-1.18049,17.40161,0.00E+00,70,-0.22806,1
530.89202,49.25371,-1.19459,17.38269,0.00E+00,70,-0.23006,1
531.39089,49.30425,-1.20779,17.37088,0.00E+00,70,-0.23159,1
531.88976,49.35484,-1.22029,17.36167,0.00E+00,70,-0.23295,1
532.38864,49.4055,-1.23246,17.35631,0.00E+00,70,-0.23443,1
532.88751,49.45611,-1.2459,17.34743,0.00E+00,70,-0.2362,1
533.38639,49.50676,-1.25909,17.33353,0.00E+00,70,-0.23824,1
533.88526,49.55742,-1.27281,17.3199,0.00E+00,70,-0.24032,1
534.38413,49.60807,-1.28481,17.30652,0.00E+00,70,-0.24201,1
534.88301,49.65866,-1.297,17.29606,0.00E+00,70,-0.24278,1
535.38188,49.70922,-1.31032,17.28638,0.00E+00,70,-0.24217,1
535.88076,49.75973,-1.32413,17.27079,0.00E+00,70,-0.23986,1
536.37963,49.81019,-1.33681,17.24765,0.00E+00,70,-0.23575,1
536.8785,49.86061,-1.34961,17.23399,0.00E+00,70,-0.23003,1
537.37738,49.91104,-1.36331,17.22702,0.00E+00,70,-0.22309,1
537.87625,49.96146,-1.3763,17.2159,0.00E+00,70,-0.2155,1
538.37513,50.01182,-1.38887,17.20659,0.00E+00,70,-0.2079,1
538.874,50.0622,-1.40183,17.19739,0.00E+00,70,-0.20088,1
539.37287,50.11257,-1.41319,17.18905,0.00E+00,70,-0.19491,1
539.87175,50.16287,-1.42759,17.17966,0.00E+00,70,-0.19028,1
540.37062,50.21319,-1.43977,17.17183,0.00E+00,70,-0.18705,1
540.8695,50.26362,-1.45225,17.16312,0.00E+00,70,-0.1851,1
541.36837,50.31398,-1.46555,17.15432,0.00E+00,70,-0.18409,1
541.86724,50.36433,-1.47727,17.14718,0.00E+00,70,-0.18353,1
542.36612,50.41473,-1.48997,17.13727,0.00E+00,70,-0.18286,1
542.86499,50.46514,-1.50247,17.12808,0.00E+00,70,-0.18145,1
543.36387,50.51545,-1.51418,17.11765,0.00E+00,70,-0.17886,1
543.86274,50.56578,-1.52706,17.10594,0.00E+00,70,-0.17489,1
544.36161,50.61609,-1.53943,17.09682,0.00E+00,70,-0.16988,1
544.86049,50.66634,-1.55181,17.08716,0.00E+00,70,-0.16476,1
545.35936,50.71657,-1.56323,17.07497,0.00E+00,70,-0.16104,1
545.85824,50.7668,-1.57586,17.06305,0.00E+00,70,-0.16069,1
546.35711,50.8171,-1.5892,17.05462,0.00E+00,70,-0.16574,1
546.85598,50.86746,-1.60073,17.04058,0.00E+00,70,-0.17777,1
547.35486,50.91786,-1.61261,17.03452,0.00E+00,70,-0.19736,1
547.85373,50.96826,-1.62274,17.06835,0.00E+00,70,-0.22369,1
548.35261,51.01866,-1.63424,17.10701,0.00E+00,70,-0.25448,1
548.85148,51.06894,-1.6468,17.08013,0.00E+00,70,-0.28624,1
549.35035,51.11914,-1.65935,17.03074,0.00E+00,70,-0.31506,1
549.84923,51.1693,-1.67167,16.98987,0.00E+00,70,-0.33739,1
550.3481,51.21942,-1.68364,16.95493,0.00E+00,70,-0.35067,1
550.84698,51.26951,-1.69512,16.92097,0.00E+00,70,-0.35385,1
551.34585,51.31962,-1.70685,16.89159,0.00E+00,70,-0.34746,1
551.84472,51.36969,-1.71852,16.89005,0.00E+00,70,-0.33336,1
552.3436,51.41975,-1.73088,16.8756,0.00E+00,70,-0.31417,1
552.84247,51.4698,-1.74158,16.86536,0.00E+00,70,-0.2927,1
553.34135,51.51985,-1.75282,16.85722,0.00E+00,70,-0.2714,1
553.84022,51.56995,-1.76447,16.8445,0.00E+00,70,-0.25201,1
554.33909,51.62016,-1.77577,16.83554,0.00E+00,70,-0.23549,1
554.83797,51.67038,-1.78731,16.82923,0.00E+00,70,-0.22213,1
555.33684,51.72057,-1.79799,16.81799,0.00E+00,70,-0.21168,1
555.83572,51.77072,-1.80933,16.80356,0.00E+00,70,-0.2036,1
556.33459,51.82077,-1.81968,16.79194,0.00E+00,70,-0.19728,1
556.83346,51.8707,-1.83033,16.78345,0.00E+00,70,-0.1922,1
557.33234,51.92059,-1.84158,16.77819,0.00E+00,70,-0.18798,1
557.83121,51.97055,-1.85188,16.7708,0.00E+00,70,-0.18438,1
558.33009,52.02055,-1.86304,16.76175,0.00E+00,70,-0.18136,1
558.82896,52.07057,-1.87333,16.74625,0.00E+00,70,-0.17896,1
559.32783,52.12061,-1.88283,16.73211,0.00E+00,70,-0.17724,1
559.82671,52.17071,-1.893,16.72863,0.00E+00,70,-0.17623,1
560.32558,52.22074,-1.90199,16.72812,0.00E+00,70,-0.17587,1
560.82446,52.27075,-1.91253,16.72389,0.00E+00,70,-0.17596,1
561.32333,52.32078,-1.92307,16.71177,0.00E+00,70,-0.17619,1
561.8222,52.37073,-1.93196,16.69918,0.00E+00,70,-0.17617,1
562.32108,52.42063,-1.9413,16.68879,0.00E+00,70,-0.17551,1
562.81995,52.47054,-1.95103,16.67786,0.00E+00,70,-0.1739,1
563.31883,52.52043,-1.9611,16.66756,0.00E+00,70,-0.17121,1
563.8177,52.57035,-1.97026,16.65876,0.00E+00,70,-0.16749,1
564.31657,52.62034,-1.97898,16.6511,0.00E+00,70,-0.16298,1
564.81545,52.6703,-1.98789,16.6453,0.00E+00,70,-0.15814,1
565.31432,52.72029,-1.9966,16.63507,0.00E+00,70,-0.15353,1
565.8132,52.77025,-2.00583,16.6246,0.00E+00,70,-0.14979,1
566.31207,52.82016,-2.0152,16.61801,0.00E+00,70,-0.14756,1
566.81094,52.87007,-2.02304,16.61474,0.00E+00,70,-0.14738,1
567.30982,52.92001,-2.03136,16.61699,0.00E+00,70,-0.14969,1
567.80869,52.96995,-2.03968,16.60849,0.00E+00,70,-0.15474,1
568.30757,53.01994,-2.04842,16.59616,0.00E+00,70,-0.16255,1
568.80644,53.07,-2.05599,16.58769,0.00E+00,70,-0.17283,1
569.30531,53.12,-2.06415,16.58539,0.00E+00,70,-0.18492,1
569.80419,53.16996,-2.07258,16.58136,0.00E+00,70,-0.19782,1
570.30306,53.2199,-2.07951,16.57173,0.00E+00,70,-0.21022,1
570.80194,53.26975,-2.0867,16.55512,0.00E+00,70,-0.22062,1
571.30081,53.31951,-2.09593,16.5439,0.00E+00,70,-0.22747,1
571.79968,53.36932,-2.10292,16.53441,0.00E+00,70,-0.22944,1
572.29856,53.41916,-2.10967,16.52251,0.00E+00,70,-0.22553,1
572.79743,53.46899,-2.11875,16.49084,0.00E+00,70,-0.21537,1
573.29631,53.5189,-2.12537,16.44926,0.00E+00,70,-0.19928,1
573.79518,53.56883,-2.13199,16.45063,0.00E+00,70,-0.17837,1
574.29405,53.61875,-2.13931,16.47293,0.00E+00,70,-0.15445,1
574.79293,53.66862,-2.14714,16.45868,0.00E+00,70,-0.12985,1
575.2918,53.71846,-2.15452,16.4271,0.00E+00,70,-0.10705,1
575.79068,53.76823,-2.16065,16.42506,0.00E+00,70,-8.85E-02,1
576.28955,53.81799,-2.16686,16.43732,0.00E+00,70,-7.59E-02,1
576.78842,53.86772,-2.17185,16.44529,0.00E+00,70,-7.06E-02,1
577.2873,53.91746,-2.17927,16.45469,0.00E+00,70,-7.28E-02,1
577.78617,53.96724,-2.18355,16.4637,0.00E+00,70,-8.16E-02,1
578.28505,54.01706,-2.19188,16.4662,0.00E+00,70,-9.57E-02,1
578.78392,54.06691,-2.19875,16.46346,0.00E+00,70,-0.11296,1
579.28279,54.11676,-2.20444,16.44172,0.00E+00,70,-0.13116,1
579.78167,54.16664,-2.21094,16.41267,0.00E+00,70,-0.14831,1
580.28054,54.21648,-2.21644,16.40559,0.00E+00,70,-0.16279,1
580.77942,54.26626,-2.2226,16.40391,0.00E+00,70,-0.17361,1
581.27829,54.31605,-2.22884,16.39696,0.00E+00,70,-0.18035,1
581.77716,54.36581,-2.23445,16.38654,0.00E+00,70,-0.18308,1
582.27604,54.41555,-2.24094,16.37425,0.00E+00,70,-0.18226,1
582.77491,54.4653,-2.24616,16.36233,0.00E+00,70,-0.17862,1
583.27379,54.51504,-2.25237,16.34993,0.00E+00,70,-0.17312,1
583.77266,54.56471,-2.25823,16.33634,0.00E+00,70,-0.16685,1
584.27153,54.61439,-2.2628,16.32626,0.00E+00,70,-0.16094,1
584.77041,54.664,-2.26854,16.32416,0.00E+00,70,-0.15654,1
585.26928,54.71361,-2.2734,16.32385,0.00E+00,70,-0.15458,1
585.76816,54.76325,-2.27883,16.32033,0.00E+00,70,-0.15575,1
586.26703,54.81299,-2.28314,16.31438,0.00E+00,70,-0.1603,1
586.7659,54.86276,-2.28839,16.30799,0.00E+00,70,-0.16802,1
587.26478,54.91262,-2.29214,16.30241,0.00E+00,70,-0.17829,1
587.76365,54.96253,-2.29601,16.29836,0.00E+00,70,-0.19008,1
588.26253,55.01246,-2.30125,16.29026,0.00E+00,70,-0.20221,1
588.7614,55.06241,-2.30596,16.27133,0.00E+00,70,-0.21348,1
589.26027,55.11234,-2.30971,16.25865,0.00E+00,70,-0.22292,1
589.75915,55.16223,-2.31388,16.237,0.00E+00,70,-0.22987,1
590.25802,55.21214,-2.31756,16.22717,0.00E+00,70,-0.23411,1
590.7569,55.26203,-2.32098,16.21341,0.00E+00,70,-0.23578,1
591.25577,55.31188,-2.32529,16.20134,0.00E+00,70,-0.23536,1
591.75464,55.36175,-2.32921,16.19034,0.00E+00,70,-0.23354,1
592.25352,55.41167,-2.33217,16.18124,0.00E+00,70,-0.23105,1
592.75239,55.46155,-2.33532,16.16615,0.00E+00,70,-0.2286,1
593.25127,55.51144,-2.33918,16.1549,0.00E+00,70,-0.22673,1
593.75014,55.56132,-2.34218,16.14614,0.00E+00,70,-0.2258,1
594.24901,55.6112,-2.34555,16.13968,0.00E+00,70,-0.22597,1
594.74789,55.66105,-2.3479,16.13515,0.00E+00,70,-0.22723,1
595.24676,55.7109,-2.35072,16.12432,0.00E+00,70,-0.22937,1
595.74564,55.76074,-2.35426,16.09678,0.00E+00,70,-0.23203,1
596.24451,55.81058,-2.35773,16.08301,0.00E+00,70,-0.23463,1
596.74338,55.86041,-2.3594,16.07992,0.00E+00,70,-0.23641,1
597.24226,55.91019,-2.36112,16.073,0.00E+00,70,-0.23641,1
597.74113,55.95995,-2.36475,16.06073,0.00E+00,70,-0.23363,1
598.24001,56.0097,-2.36658,16.05458,0.00E+00,70,-0.22718,1
598.73888,56.05945,-2.3681,16.0501,0.00E+00,70,-0.2165,1
599.23775,56.10922,-2.37216,16.01731,0.00E+00,70,-0.20162,1
599.73663,56.15907,-2.37469,15.96814,0.00E+00,70,-0.18325,1
600.2355,56.20893,-2.37375,15.96173,0.00E+00,70,-0.16285,1
600.73438,56.25877,-2.37557,15.97173,0.00E+00,70,-0.14232,1
601.23325,56.3086,-2.37657,15.97974,0.00E+00,70,-0.12371,1
601.73212,56.35837,-2.37822,15.9846,0.00E+00,70,-0.10883,1
602.231,56.40811,-2.37946,15.97908,0.00E+00,70,-9.89E-02,1
602.72987,56.45789,-2.38044,15.98154,0.00E+00,70,-9.44E-02,1
603.22875,56.50771,-2.38059,15.98129,0.00E+00,70,-9.50E-02,1
603.72762,56.55754,-2.38217,15.97149,0.00E+00,70,-0.10001,1
604.22649,56.60739,-2.38125,15.9692,0.00E+00,70,-0.10805,1
604.72537,56.65724,-2.38296,15.96879,0.00E+00,70,-0.11787,1
605.22424,56.70705,-2.38277,15.9534,0.00E+00,70,-0.12834,1
605.72312,56.75688,-2.38282,15.94484,0.00E+00,70,-0.1387,1
606.22199,56.80674,-2.38266,15.93668,0.00E+00,70,-0.14865,1
606.72086,56.85665,-2.38228,15.92868,0.00E+00,70,-0.1583,1
607.21974,56.90659,-2.38199,15.92043,0.00E+00,70,-0.16808,1
607.71861,56.95653,-2.38097,15.91108,0.00E+00,70,-0.17856,1
608.21749,57.00641,-2.3806,15.9031,0.00E+00,70,-0.19016,1
608.71636,57.05625,-2.37979,15.89513,0.00E+00,70,-0.20297,1
609.21523,57.10603,-2.37859,15.88857,0.00E+00,70,-0.21649,1
609.71411,57.15574,-2.37846,15.88168,0.00E+00,70,-0.22956,1
610.21298,57.20543,-2.37885,15.87375,0.00E+00,70,-0.24055,1
610.71186,57.25518,-2.3777,15.86694,0.00E+00,70,-0.24753,1
611.21073,57.30497,-2.3773,15.86096,0.00E+00,70,-0.24876,1
611.7096,57.35478,-2.37612,15.84623,0.00E+00,70,-0.2431,1
612.20848,57.40465,-2.37528,15.77908,0.00E+00,70,-0.23043,1
612.70735,57.45457,-2.37465,15.72931,0.00E+00,70,-0.21179,1
613.20623,57.50446,-2.37235,15.73293,0.00E+00,70,-0.18929,1
613.7051,57.55436,-2.3697,15.76599,0.00E+00,70,-0.16562,1
614.20397,57.60428,-2.36538,15.7691,0.00E+00,70,-0.14358,1
614.70285,57.65418,-2.36465,15.76361,0.00E+00,70,-0.12556,1
615.20172,57.70407,-2.36116,15.7584,0.00E+00,70,-0.11309,1
615.7006,57.75393,-2.35978,15.75588,0.00E+00,70,-0.10671,1
616.19947,57.80381,-2.35604,15.75465,0.00E+00,70,-0.10598,1
616.69834,57.85368,-2.35488,15.75298,0.00E+00,70,-0.10979,1
617.19722,57.9036,-2.35095,15.74617,0.00E+00,70,-0.11665,1
617.69609,57.95351,-2.34881,15.74236,0.00E+00,70,-0.12498,1
618.19497,58.00354,-2.34472,15.73641,0.00E+00,70,-0.13344,1
618.69384,58.05353,-2.34131,15.72123,0.00E+00,70,-0.14102,1
619.19271,58.1035,-2.33869,15.7066,0.00E+00,70,-0.14718,1
619.69159,58.15342,-2.33627,15.69641,0.00E+00,70,-0.1518,1
620.19046,58.2034,-2.33228,15.69387,0.00E+00,70,-0.15506,1
620.68934,58.25329,-2.3285,15.68828,0.00E+00,70,-0.15732,1
621.18821,58.30321,-2.32659,15.68149,0.00E+00,70,-0.159,1
621.68708,58.35319,-2.32413,15.67336,0.00E+00,70,-0.16045,1
622.18596,58.4032,-2.32164,15.66532,0.00E+00,70,-0.16191,1
622.68483,58.45312,-2.31682,15.65715,0.00E+00,70,-0.1635,1
623.18371,58.50304,-2.31388,15.64784,0.00E+00,70,-0.16527,1
623.68258,58.55292,-2.31012,15.64113,0.00E+00,70,-0.16725,1
624.18145,58.60276,-2.30788,15.63314,0.00E+00,70,-0.16953,1
624.68033,58.65253,-2.30412,15.62622,0.00E+00,70,-0.1723,1
625.1792,58.70236,-2.30013,15.61121,0.00E+00,70,-0.17582,1
625.67808,58.75214,-2.29662,15.59806,0.00E+00,70,-0.18031,1
626.17695,58.80193,-2.294,15.59164,0.00E+00,70,-0.18581,1
626.67582,58.85173,-2.28921,15.59037,0.00E+00,70,-0.192,1
627.1747,58.9016,-2.28686,15.5876,0.00E+00,70,-0.19812,1
627.67357,58.95145,-2.28189,15.58211,0.00E+00,70,-0.20293,1
628.17245,59.00135,-2.27773,15.57119,0.00E+00,70,-0.2049,1
628.67132,59.05127,-2.27393,15.5535,0.00E+00,70,-0.20251,1
629.17019,59.10113,-2.27025,15.53219,0.00E+00,70,-0.19462,1
629.66907,59.15099,-2.26685,15.52573,0.00E+00,70,-0.18082,1
630.16794,59.20081,-2.26279,15.51035,0.00E+00,70,-0.1617,1
630.66682,59.25062,-2.26093,15.46067,0.00E+00,70,-0.13881,1
631.16569,59.30038,-2.25425,15.44912,0.00E+00,70,-0.11445,1
631.66456,59.35019,-2.24936,15.47067,0.00E+00,70,-9.12E-02,1
632.16344,59.39992,-2.24548,15.48806,0.00E+00,70,-7.17E-02,1
632.66231,59.44967,-2.24088,15.50013,0.00E+00,70,-5.77E-02,1
633.16119,59.49945,-2.23638,15.50697,0.00E+00,70,-5.02E-02,1
633.66006,59.54924,-2.23207,15.49631,0.00E+00,70,-4.92E-02,1
634.15893,59.59899,-2.22859,15.49216,0.00E+00,70,-5.41E-02,1
634.65781,59.64881,-2.22434,15.48952,0.00E+00,70,-6.35E-02,1
635.15668,59.69862,-2.21877,15.48549,0.00E+00,70,-7.58E-02,1
635.65556,59.74839,-2.21591,15.48279,0.00E+00,70,-8.95E-02,1
636.15443,59.79819,-2.21061,15.47884,0.00E+00,70,-0.10319,1
636.6533,59.84805,-2.2071,15.47348,0.00E+00,70,-0.11585,1
637.15218,59.89788,-2.20203,15.46699,0.00E+00,70,-0.1266,1
637.65105,59.94776,-2.19804,15.45364,0.00E+00,70,-0.13489,1
638.14993,59.99774,-2.19474,15.44401,0.00E+00,70,-0.14035,1
638.6488,60.04772,-2.18898,15.43594,0.00E+00,70,-0.14281,1
639.14767,60.09768,-2.18529,15.42905,0.00E+00,70,-0.14229,1
639.64655,60.14764,-2.17943,15.42396,0.00E+00,70,-0.139,1
640.14542,60.19758,-2.17632,15.40806,0.00E+00,70,-0.13338,1
640.6443,60.24742,-2.17085,15.39807,0.00E+00,70,-0.12606,1
641.14317,60.29717,-2.1668,15.3978,0.00E+00,70,-0.11782,1
641.64204,60.34691,-2.16233,15.39574,0.00E+00,70,-0.1095,1
642.14092,60.39664,-2.15821,15.3825,0.00E+00,70,-0.10195,1
642.63979,60.44636,-2.15398,15.37649,0.00E+00,70,-9.59E-02,1
643.13867,60.49612,-2.14896,15.37609,0.00E+00,70,-9.19E-02,1
643.63754,60.54597,-2.14483,15.38134,0.00E+00,70,-9.01E-02,1
644.13641,60.59579,-2.14035,15.38311,0.00E+00,70,-9.04E-02,1
644.63529,60.64565,-2.13627,15.38083,0.00E+00,70,-9.25E-02,1
645.13416,60.6955,-2.13308,15.37312,0.00E+00,70,-9.58E-02,1
645.63304,60.74526,-2.12911,15.36383,0.00E+00,70,-9.97E-02,1
646.13191,60.79503,-2.12439,15.35313,0.00E+00,70,-0.10363,1
646.63078,60.84482,-2.12035,15.3446,0.00E+00,70,-0.10726,1
647.12966,60.89452,-2.11649,15.34145,0.00E+00,70,-0.11043,1
647.62853,60.94426,-2.11368,15.34023,0.00E+00,70,-0.11312,1
648.12741,60.9941,-2.10906,15.33656,0.00E+00,70,-0.11544,1
648.62628,61.04393,-2.10534,15.33017,0.00E+00,70,-0.11745,1
649.12515,61.09376,-2.10032,15.32199,0.00E+00,70,-0.11917,1
649.62403,61.14372,-2.09618,15.31644,0.00E+00,70,-0.12058,1
650.1229,61.19366,-2.09203,15.30985,0.00E+00,70,-0.12157,1
650.62178,61.24355,-2.0881,15.30422,0.00E+00,70,-0.12204,1
651.12065,61.29344,-2.08503,15.29919,0.00E+00,70,-0.12199,1
651.61952,61.34331,-2.08022,15.29005,0.00E+00,70,-0.12148,1
652.1184,61.3931,-2.07705,15.28193,0.00E+00,70,-0.12068,1
652.61727,61.44286,-2.07163,15.27247,0.00E+00,70,-0.11985,1
653.11615,61.4926,-2.06867,15.26747,0.00E+00,70,-0.1192,1
653.61502,61.54231,-2.06595,15.26732,0.00E+00,70,-0.1189,1
654.11389,61.59202,-2.0619,15.26527,0.00E+00,70,-0.11895,1
654.61277,61.64171,-2.0575,15.26008,0.00E+00,70,-0.11923,1
655.11164,61.69142,-2.05401,15.25492,0.00E+00,70,-0.11946,1
655.61052,61.74116,-2.04893,15.24633,0.00E+00,70,-0.1193,1
656.10939,61.79094,-2.04606,15.23527,0.00E+00,70,-0.11845,1
656.60826,61.84076,-2.04391,15.22814,0.00E+00,70,-0.11667,1
657.10714,61.89063,-2.03899,15.22016,0.00E+00,70,-0.11386,1
657.60601,61.94049,-2.03521,15.21524,0.00E+00,70,-0.11012,1
658.10489,61.99034,-2.03243,15.21276,0.00E+00,70,-0.10563,1
658.60376,62.04018,-2.02966,15.20784,0.00E+00,70,-0.10069,1
659.10263,62.08999,-2.0258,15.20231,0.00E+00,70,-9.56E-02,1
659.60151,62.13978,-2.02072,15.19717,0.00E+00,70,-9.08E-02,1
660.10038,62.18961,-2.01786,15.19039,0.00E+00,70,-8.64E-02,1
660.59926,62.23941,-2.01442,15.1867,0.00E+00,70,-8.26E-02,1
661.09813,62.2892,-2.01117,15.18646,0.00E+00,70,-7.94E-02,1
661.597,62.33901,-2.00812,15.18574,0.00E+00,70,-7.67E-02,1
662.09588,62.38883,-2.00506,15.1819,0.00E+00,70,-7.46E-02,1
662.59475,62.43864,-2.0004,15.17926,0.00E+00,70,-7.28E-02,1
663.09363,62.4885,-1.99731,15.17333,0.00E+00,70,-7.14E-02,1
663.5925,62.53841,-1.99373,15.16671,0.00E+00,70,-7.05E-02,1
664.09137,62.58832,-1.99053,15.15821,0.00E+00,70,-7.02E-02,1
664.59025,62.63822,-1.98616,15.15656,0.00E+00,70,-7.08E-02,1
665.08912,62.68814,-1.98369,15.15683,0.00E+00,70,-7.26E-02,1
665.588,62.73806,-1.98063,15.15789,0.00E+00,70,-7.55E-02,1
666.08687,62.78796,-1.97658,15.15836,0.00E+00,70,-7.95E-02,1
666.58574,62.83785,-1.97488,15.15672,0.00E+00,70,-8.40E-02,1
667.08462,62.88771,-1.97208,15.14943,0.00E+00,70,-8.83E-02,1
667.58349,62.93752,-1.96823,15.14318,0.00E+00,70,-9.17E-02,1
668.08237,62.98729,-1.96604,15.13827,0.00E+00,70,-9.33E-02,1
668.58124,63.03704,-1.96367,15.13086,0.00E+00,70,-9.26E-02,1
669.08011,63.08678,-1.96181,15.12126,0.00E+00,70,-8.93E-02,1
669.57899,63.13655,-1.9588,15.10695,0.00E+00,70,-8.38E-02,1
670.07786,63.18634,-1.95559,15.1039,0.00E+00,70,-7.68E-02,1
670.57674,63.23617,-1.95247,15.10275,0.00E+00,70,-6.93E-02,1
671.07561,63.28599,-1.95066,15.09948,0.00E+00,70,-6.25E-02,1
671.57448,63.33583,-1.94792,15.09863,0.00E+00,70,-5.79E-02,1
672.07336,63.38567,-1.94491,15.1008,0.00E+00,70,-5.63E-02,1
672.57223,63.43551,-1.94244,15.10352,0.00E+00,70,-5.84E-02,1
673.07111,63.48531,-1.9404,15.10653,0.00E+00,70,-6.44E-02,1
673.56998,63.53512,-1.93726,15.10645,0.00E+00,70,-7.38E-02,1
674.06885,63.58496,-1.93458,15.10323,0.00E+00,70,-8.59E-02,1
674.56773,63.63483,-1.93259,15.09686,0.00E+00,70,-9.96E-02,1
675.0666,63.6848,-1.92922,15.09194,0.00E+00,70,-0.11367,1
675.56548,63.73483,-1.92636,15.08768,0.00E+00,70,-0.12702,1
676.06435,63.78487,-1.92457,15.07736,0.00E+00,70,-0.13867,1
676.56322,63.83488,-1.92193,15.05702,0.00E+00,70,-0.14795,1
677.0621,63.88484,-1.91762,15.04709,0.00E+00,70,-0.15452,1
677.56097,63.93468,-1.91465,15.04399,0.00E+00,70,-0.15829,1
678.05985,63.98445,-1.91151,15.03803,0.00E+00,70,-0.15936,1
678.55872,64.03425,-1.90891,15.03002,0.00E+00,70,-0.15792,1
679.05759,64.08404,-1.90694,15.02273,0.00E+00,70,-0.15417,1
679.55647,64.13384,-1.90484,15.00956,0.00E+00,70,-0.1483,1
680.05534,64.18367,-1.90185,14.99745,0.00E+00,70,-0.14049,1
680.55422,64.23351,-1.89922,14.99261,0.00E+00,70,-0.13092,1
681.05309,64.2833,-1.8973,14.98697,0.00E+00,70,-0.11984,1
681.55196,64.33308,-1.89567,14.98,0.00E+00,70,-0.10751,1
682.05084,64.38284,-1.89365,14.9738,0.00E+00,70,-9.43E-02,1
682.54971,64.43263,-1.89122,14.97145,0.00E+00,70,-8.07E-02,1
683.04859,64.48244,-1.88911,14.96892,0.00E+00,70,-6.73E-02,1
683.54746,64.53229,-1.88601,14.96262,0.00E+00,70,-5.47E-02,1
684.04633,64.58217,-1.88412,14.95682,0.00E+00,70,-4.35E-02,1
684.54521,64.63207,-1.88209,14.95211,0.00E+00,70,-3.43E-02,1
685.04408,64.68197,-1.87866,14.96334,0.00E+00,70,-2.74E-02,1
685.54296,64.73184,-1.87583,14.96953,0.00E+00,70,-2.28E-02,1
686.04183,64.78169,-1.87332,14.96803,0.00E+00,70,-2.04E-02,1
686.5407,64.8315,-1.87182,14.96851,0.00E+00,70,-2.00E-02,1
687.03958,64.88131,-1.8699,14.96778,0.00E+00,70,-2.12E-02,1
687.53845,64.9311,-1.86648,14.96508,0.00E+00,70,-2.41E-02,1
688.03733,64.98085,-1.86632,14.96386,0.00E+00,70,-2.89E-02,1
688.5362,65.03065,-1.86495,14.95265,0.00E+00,70,-3.61E-02,1
689.03507,65.08044,-1.86054,14.94199,0.00E+00,70,-4.61E-02,1
689.53395,65.13021,-1.85894,14.93613,0.00E+00,70,-5.90E-02,1
690.03282,65.17998,-1.85591,14.93423,0.00E+00,70,-7.41E-02,1
690.5317,65.22979,-1.85123,14.99354,0.00E+00,70,-8.99E-02,1
691.03057,65.27953,-1.85053,15.02104,0.00E+00,70,-0.10405,1
691.52944,65.32924,-1.84953,14.96814,0.00E+00,70,-0.11356,1
692.02832,65.37896,-1.84866,14.92074,0.00E+00,70,-0.11563,1
692.52719,65.4287,-1.8481,14.90218,0.00E+00,70,-0.10813,1
693.02607,65.47844,-1.84531,14.88843,0.00E+00,70,-9.04E-02,1
693.52494,65.52824,-1.842,14.88253,0.00E+00,70,-6.34E-02,1
694.02381,65.57812,-1.84049,14.88346,0.00E+00,70,-2.99E-02,1
694.52269,65.62799,-1.83821,14.87947,0.00E+00,70,5.55E-03,1
695.02156,65.67789,-1.83507,14.8729,0.00E+00,70,3.80E-02,1
695.52044,65.72786,-1.8335,14.86245,0.00E+00,70,6.22E-02,1
696.01931,65.77782,-1.82987,14.86912,0.00E+00,70,7.43E-02,1
696.51818,65.82774,-1.82572,14.93556,0.00E+00,70,7.20E-02,1
697.01706,65.87768,-1.82263,14.98994,0.00E+00,70,5.51E-02,1
697.51593,65.92759,-1.82098,14.9993,0.00E+00,70,2.59E-02,1
698.01481,65.97743,-1.81955,14.98747,0.00E+00,70,-1.17E-02,1
698.51368,66.02723,-1.81805,14.96633,0.00E+00,70,-5.31E-02,1
699.01255,66.07703,-1.81664,14.94857,0.00E+00,70,-9.35E-02,1
699.51143,66.12688,-1.81352,14.92721,0.00E+00,70,-0.12899,1
700.0103,66.17672,-1.81176,14.91088,0.00E+00,70,-0.15702,1
700.50918,66.22655,-1.81049,14.89799,0.00E+00,70,-0.1765,1
701.00805,66.27637,-1.80757,14.88492,0.00E+00,70,-0.18775,1
701.50692,66.32615,-1.80467,14.87417,0.00E+00,70,-0.19205,1
702.0058,66.37585,-1.80286,14.86644,0.00E+00,70,-0.19118,1
702.50467,66.4255,-1.79984,14.85988,0.00E+00,70,-0.18692,1
703.00355,66.47516,-1.79698,14.85361,0.00E+00,70,-0.18084,1
703.50242,66.52482,-1.7955,14.84919,0.00E+00,70,-0.17414,1
704.00129,66.57448,-1.79396,14.83996,0.00E+00,70,-0.16776,1
704.50017,66.62417,-1.79164,14.82538,0.00E+00,70,-0.16247,1
704.99904,66.67391,-1.7885,14.81409,0.00E+00,70,-0.15892,1
705.49792,66.72369,-1.78652,14.80531,0.00E+00,70,-0.15764,1
705.99679,66.77348,-1.77714,14.79903,0.00E+00,70,-0.15896,1
706.49566,66.8233,-1.76802,14.79206,0.00E+00,70,-0.16277,1
706.99454,66.87311,-1.76615,14.7915,0.00E+00,70,-0.16842,1
707.49341,66.92287,-1.76459,14.81074,0.00E+00,70,-0.17473,1
707.99229,66.9726,-1.76376,14.81114,0.00E+00,70,-0.18012,1
708.49116,67.02231,-1.76293,14.77679,0.00E+00,70,-0.18302,1
708.99003,67.07199,-1.76137,14.74739,0.00E+00,70,-0.18228,1
709.48891,67.12168,-1.758,14.73345,0.00E+00,70,-0.17753,1
709.98778,67.17144,-1.75708,14.72061,0.00E+00,70,-0.16937,1
710.48666,67.22126,-1.75502,14.70202,0.00E+00,70,-0.15934,1
710.98553,67.27114,-1.75231,14.69018,0.00E+00,70,-0.14952,1
711.4844,67.32104,-1.74909,14.68815,0.00E+00,70,-0.14199,1
711.98328,67.37099,-1.74541,14.68896,0.00E+00,70,-0.13817,1
712.48215,67.42095,-1.74214,14.72135,0.00E+00,70,-0.13843,1
712.98103,67.47084,-1.74007,14.75284,0.00E+00,70,-0.1419,1
713.4799,67.52066,-1.73878,14.72362,0.00E+00,70,-0.14674,1
713.97877,67.57046,-1.73655,14.68375,0.00E+00,70,-0.15061,1
714.47765,67.62021,-1.7352,14.65925,0.00E+00,70,-0.1513,1
714.97652,67.66988,-1.73413,14.64773,0.00E+00,70,-0.14728,1
715.4754,67.71956,-1.73242,14.63668,0.00E+00,70,-0.13799,1
715.97427,67.76931,-1.73028,14.62762,0.00E+00,70,-0.12383,1
716.47314,67.81911,-1.72764,14.62422,0.00E+00,70,-0.10603,1
716.97202,67.86892,-1.72507,14.62351,0.00E+00,70,-8.63E-02,1
717.47089,67.9188,-1.72317,14.62416,0.00E+00,70,-6.62E-02,1
717.96977,67.96866,-1.7209,14.62519,0.00E+00,70,-4.72E-02,1
718.46864,68.01846,-1.71801,14.62487,0.00E+00,70,-3.03E-02,1
718.96751,68.06822,-1.71568,14.62548,0.00E+00,70,-1.58E-02,1
719.46639,68.118,-1.71405,14.62653,0.00E+00,70,-3.79E-03,1
719.96526,68.16777,-1.71062,14.62623,0.00E+00,70,5.95E-03,1
720.46414,68.21761,-1.70842,14.6268,0.00E+00,70,1.36E-02,1
720.96301,68.26747,-1.70675,14.62789,0.00E+00,70,1.94E-02,1
721.46188,68.31733,-1.7036,14.62753,0.00E+00,70,2.32E-02,1
721.96076,68.36717,-1.70177,14.62832,0.00E+00,70,2.48E-02,1
722.45963,68.41698,-1.70023,14.62856,0.00E+00,70,2.41E-02,1
722.95851,68.46671,-1.69825,14.63176,0.00E+00,70,2.09E-02,1
723.45738,68.51649,-1.69583,14.64336,0.00E+00,70,1.53E-02,1
723.95625,68.56629,-1.69354,14.64872,0.00E+00,70,7.70E-03,1
724.45513,68.61614,-1.69087,14.64979,0.00E+00,70,-1.38E-03,1
724.954,68.66605,-1.68915,14.65007,0.00E+00,70,-1.12E-02,1
725.45288,68.71597,-1.68663,14.64396,0.00E+00,70,-2.08E-02,1
725.95175,68.76586,-1.68452,14.63684,0.00E+00,70,-2.96E-02,1
726.45062,68.81573,-1.68298,14.63318,0.00E+00,70,-3.72E-02,1
726.9495,68.86557,-1.68045,14.62952,0.00E+00,70,-4.33E-02,1
727.44837,68.91537,-1.67891,14.62652,0.00E+00,70,-4.81E-02,1
727.94725,68.96521,-1.67661,14.62282,0.00E+00,70,-5.21E-02,1
728.44612,69.01502,-1.67527,14.62274,0.00E+00,70,-5.57E-02,1
728.94499,69.06479,-1.67297,14.62345,0.00E+00,70,-5.93E-02,1
729.44387,69.11457,-1.67064,14.62217,0.00E+00,70,-6.32E-02,1
729.94274,69.16432,-1.66976,14.61937,0.00E+00,70,-6.76E-02,1
730.44162,69.21404,-1.6671,14.6128,0.00E+00,70,-7.24E-02,1
730.94049,69.26382,-1.66545,14.60909,0.00E+00,70,-7.73E-02,1
731.43936,69.31363,-1.66319,14.6054,0.00E+00,70,-8.20E-02,1
731.93824,69.3634,-1.66061,14.60241,0.00E+00,70,-8.61E-02,1
732.43711,69.41318,-1.65854,14.5988,0.00E+00,70,-8.90E-02,1
732.93599,69.46303,-1.65582,14.59517,0.00E+00,70,-9.05E-02,1
733.43486,69.51287,-1.6535,14.58617,0.00E+00,70,-9.04E-02,1
733.93373,69.56279,-1.65159,14.57703,0.00E+00,70,-8.87E-02,1
734.43261,69.61281,-1.65061,14.56929,0.00E+00,70,-8.58E-02,1
734.93148,69.66291,-1.64809,14.56302,0.00E+00,70,-8.21E-02,1
735.43036,69.71298,-1.64685,14.56013,0.00E+00,70,-7.83E-02,1
735.92923,69.76298,-1.64587,14.56045,0.00E+00,70,-7.48E-02,1
736.4281,69.81292,-1.64382,14.56039,0.00E+00,70,-7.19E-02,1
736.92698,69.86273,-1.64169,14.56029,0.00E+00,70,-6.98E-02,1
737.42585,69.91245,-1.64083,14.55814,0.00E+00,70,-6.80E-02,1
737.92473,69.96211,-1.63842,14.55427,0.00E+00,70,-6.59E-02,1
738.4236,70.01178,-1.63667,14.55147,0.00E+00,70,-6.28E-02,1
738.92247,70.06143,-1.63391,14.54741,0.00E+00,70,-5.79E-02,1
739.42135,70.11106,-1.62966,14.5405,0.00E+00,70,-5.10E-02,1
739.92022,70.16071,-1.62815,14.52872,0.00E+00,70,-4.19E-02,1
740.4191,70.21035,-1.62671,14.52315,0.00E+00,70,-3.13E-02,1
740.91797,70.25998,-1.62448,14.51919,0.00E+00,70,-2.02E-02,1
741.41684,70.30959,-1.6221,14.51527,0.00E+00,70,-9.78E-03,1
741.91572,70.35922,-1.62051,14.51982,0.00E+00,70,-1.46E-03,1
742.41459,70.40887,-1.61802,14.53725,0.00E+00,70,3.75E-03,1
742.91347,70.45857,-1.61623,14.54343,0.00E+00,70,5.23E-03,1
743.41234,70.50828,-1.61494,14.54608,0.00E+00,70,2.90E-03,1
743.91121,70.55806,-1.61358,14.54837,0.00E+00,70,-2.78E-03,1
744.41009,70.60784,-1.6112,14.54638,0.00E+00,70,-1.10E-02,1
744.90896,70.65761,-1.60756,14.54227,0.00E+00,70,-2.07E-02,1
745.40784,70.70737,-1.60563,14.53818,0.00E+00,70,-3.07E-02,1
745.90671,70.75718,-1.60251,14.53452,0.00E+00,70,-4.04E-02,1
746.40558,70.80699,-1.60058,14.53309,0.00E+00,70,-4.91E-02,1
746.90446,70.85681,-1.59948,14.52878,0.00E+00,70,-5.63E-02,1
747.40333,70.90669,-1.5978,14.52499,0.00E+00,70,-6.22E-02,1
747.90221,70.95652,-1.59531,14.52225,0.00E+00,70,-6.66E-02,1
748.40108,71.00633,-1.59312,14.51811,0.00E+00,70,-6.98E-02,1
748.89995,71.05614,-1.59101,14.51412,0.00E+00,70,-7.20E-02,1
749.39883,71.10597,-1.5882,14.51009,0.00E+00,70,-7.35E-02,1
749.8977,71.15584,-1.58574,14.50606,0.00E+00,70,-7.45E-02,1
750.39658,71.20578,-1.58372,14.50203,0.00E+00,70,-7.53E-02,1
750.89545,71.25569,-1.58072,14.49799,0.00E+00,70,-7.63E-02,1
751.39432,71.30563,-1.57861,14.49397,0.00E+00,70,-7.77E-02,1
751.8932,71.35555,-1.57729,14.48988,0.00E+00,70,-7.98E-02,1
752.39207,71.40537,-1.57518,14.48607,0.00E+00,70,-8.29E-02,1
752.89095,71.4552,-1.57286,14.48489,0.00E+00,70,-8.70E-02,1
753.38982,71.50509,-1.57293,14.48346,0.00E+00,70,-9.20E-02,1
753.88869,71.555,-1.57009,14.4805,0.00E+00,70,-9.79E-02,1
754.38757,71.60489,-1.56753,14.47505,0.00E+00,70,-0.1044,1
754.88644,71.65479,-1.56796,14.46952,0.00E+00,70,-0.11114,1
755.38532,71.70465,-1.56604,14.46131,0.00E+00,70,-0.11799,1
755.88419,71.75445,-1.56363,14.45332,0.00E+00,70,-0.12494,1
756.38306,71.80418,-1.5611,14.44522,0.00E+00,70,-0.13218,1
756.88194,71.85393,-1.56041,14.43737,0.00E+00,70,-0.14009,1
757.38081,71.90379,-1.55836,14.43201,0.00E+00,70,-0.1491,1
757.87969,71.95368,-1.55577,14.4253,0.00E+00,70,-0.15941,1
758.37856,72.00357,-1.55356,14.41993,0.00E+00,70,-0.17075,1
758.87743,72.05353,-1.55345,14.41317,0.00E+00,70,-0.18226,1
759.37631,72.10349,-1.55103,14.40794,0.00E+00,70,-0.19231,1
759.87518,72.15336,-1.54861,14.40392,0.00E+00,70,-0.19875,1
760.37406,72.20315,-1.54798,14.39833,0.00E+00,70,-0.1993,1
760.87293,72.25299,-1.54543,14.39358,0.00E+00,70,-0.19207,1
761.3718,72.30282,-1.54376,14.38133,0.00E+00,70,-0.17609,1
761.87068,72.35263,-1.5442,14.3045,0.00E+00,70,-0.15175,1
762.36955,72.40247,-1.54104,14.2551,0.00E+00,70,-0.12088,1
762.86843,72.45235,-1.53928,14.26579,0.00E+00,70,-8.65E-02,1
763.3673,72.50218,-1.53771,14.3075,0.00E+00,70,-5.24E-02,1
763.86617,72.55198,-1.53557,14.32926,0.00E+00,70,-2.21E-02,1
764.36505,72.60179,-1.53448,14.33568,0.00E+00,70,1.55E-03,1
764.86392,72.65162,-1.53321,14.33972,0.00E+00,70,1.69E-02,1
765.3628,72.70146,-1.53141,14.34368,0.00E+00,70,2.37E-02,1
765.86167,72.75134,-1.53084,14.34502,0.00E+00,70,2.27E-02,1
766.36054,72.80122,-1.52739,14.34767,0.00E+00,70,1.58E-02,1
766.85942,72.85114,-1.52791,14.34625,0.00E+00,70,4.88E-03,1
767.35829,72.90102,-1.52492,14.34496,0.00E+00,70,-7.87E-03,1
767.85717,72.95089,-1.52517,14.34493,0.00E+00,70,-2.08E-02,1
768.35604,73.00077,-1.52453,14.34223,0.00E+00,70,-3.26E-02,1
768.85491,73.05061,-1.52403,14.33951,0.00E+00,70,-4.28E-02,1
769.35379,73.10041,-1.52413,14.33143,0.00E+00,70,-5.10E-02,1
769.85266,73.15019,-1.52321,14.32474,0.00E+00,70,-5.76E-02,1
770.35154,73.19995,-1.523,14.31938,0.00E+00,70,-6.29E-02,1
770.85041,73.24964,-1.52291,14.31803,0.00E+00,70,-6.75E-02,1
771.34928,73.29931,-1.52177,14.31803,0.00E+00,70,-7.18E-02,1
771.84816,73.349,-1.52261,14.31804,0.00E+00,70,-7.60E-02,1
772.34703,73.39869,-1.51986,14.31675,0.00E+00,70,-8.01E-02,1
772.84591,73.44837,-1.51995,14.31405,0.00E+00,70,-8.38E-02,1
773.34478,73.49811,-1.51735,14.31154,0.00E+00,70,-8.68E-02,1
773.84365,73.54789,-1.51585,14.30104,0.00E+00,70,-8.85E-02,1
774.34253,73.59765,-1.51448,14.29019,0.00E+00,70,-8.88E-02,1
774.8414,73.64744,-1.5121,14.28205,0.00E+00,70,-8.75E-02,1
775.34028,73.69725,-1.51088,14.27527,0.00E+00,70,-8.48E-02,1
775.83915,73.74713,-1.50842,14.27101,0.00E+00,70,-8.13E-02,1
776.33802,73.79702,-1.50719,14.27086,0.00E+00,70,-7.74E-02,1
776.8369,73.84695,-1.50439,14.27095,0.00E+00,70,-7.37E-02,1
777.33577,73.89688,-1.50214,14.26963,0.00E+00,70,-7.04E-02,1
777.83465,73.94682,-1.50107,14.26838,0.00E+00,70,-6.76E-02,1
778.33352,73.99666,-1.50016,14.26443,0.00E+00,70,-6.52E-02,1
778.83239,74.04648,-1.49924,14.26164,0.00E+00,70,-6.29E-02,1
779.33127,74.09629,-1.49815,14.25794,0.00E+00,70,-6.03E-02,1
779.83014,74.14604,-1.49676,14.24881,0.00E+00,70,-5.71E-02,1
780.32902,74.19574,-1.49655,14.24149,0.00E+00,70,-5.35E-02,1
780.82789,74.2455,-1.49514,14.2425,0.00E+00,70,-4.94E-02,1
781.32676,74.29525,-1.49324,14.24152,0.00E+00,70,-4.55E-02,1
781.82564,74.345,-1.49229,14.2389,0.00E+00,70,-4.21E-02,1
782.32451,74.39478,-1.49105,14.23603,0.00E+00,70,-3.99E-02,1
782.82339,74.44461,-1.49013,14.23694,0.00E+00,70,-3.92E-02,1
783.32226,74.49441,-1.48718,14.23974,0.00E+00,70,-4.05E-02,1
783.82113,74.54425,-1.48537,14.24003,0.00E+00,70,-4.39E-02,1
784.32001,74.59407,-1.48495,14.23883,0.00E+00,70,-4.92E-02,1
784.81888,74.64389,-1.48268,14.23623,0.00E+00,70,-5.63E-02,1
785.31776,74.69372,-1.48166,14.23362,0.00E+00,70,-6.50E-02,1
785.81663,74.74354,-1.48107,14.22965,0.00E+00,70,-7.50E-02,1
786.3155,74.79336,-1.48049,14.2259,0.00E+00,70,-8.62E-02,1
786.81438,74.84319,-1.47917,14.21811,0.00E+00,70,-9.82E-02,1
787.31325,74.893,-1.47749,14.21225,0.00E+00,70,-0.11066,1
787.81213,74.94274,-1.47627,14.20822,0.00E+00,70,-0.12279,1
788.311,74.99246,-1.4746,14.20412,0.00E+00,70,-0.13341,1
788.80987,75.04216,-1.47399,14.20125,0.00E+00,70,-0.14094,1
789.30875,75.09184,-1.4729,14.19873,0.00E+00,70,-0.1436,1
789.80762,75.1415,-1.47164,14.19716,0.00E+00,70,-0.13978,1
790.3065,75.19124,-1.4707,14.20111,0.00E+00,70,-0.12844,1
790.80537,75.24101,-1.47112,14.14578,0.00E+00,70,-0.10959,1
791.30424,75.29076,-1.46832,14.08744,0.00E+00,70,-8.45E-02,1
791.80312,75.34052,-1.4659,14.0953,0.00E+00,70,-5.54E-02,1
792.30199,75.39039,-1.45352,14.11198,0.00E+00,70,-2.54E-02,1
792.80087,75.44024,-1.44865,14.13223,0.00E+00,70,2.35E-03,1
793.29974,75.49007,-1.44468,14.15864,0.00E+00,70,2.51E-02,1
793.79861,75.53999,-1.44122,14.1637,0.00E+00,70,4.21E-02,1
794.29749,75.58994,-1.43943,14.1646,0.00E+00,70,5.51E-02,1
794.79636,75.63981,-1.43768,14.17268,0.00E+00,70,6.28E-02,1
795.29524,75.68968,-1.43675,14.17523,0.00E+00,70,5.49E-02,1
795.79411,75.73958,-1.43373,14.17652,0.00E+00,70,2.75E-02,1
796.29298,75.78942,-1.4295,14.17557,0.00E+00,70,-6.56E-03,1
796.79186,75.83919,-1.42821,14.17472,0.00E+00,70,-3.68E-02,1
797.29073,75.88892,-1.42755,14.16848,0.00E+00,70,-6.34E-02,1
797.78961,75.93923,-1.42411,14.16675,0.00E+00,70,-8.88E-02,1
