Time (s),Mass (g),HRR (kW/m2)
0.00,123.80,0.00
4.80,123.50,2.60
10.20,123.28,1.70
15.00,123.18,0.00
19.80,122.89,0.00
25.20,122.33,116.10
30.00,121.63,171.90
34.80,120.98,179.70
40.20,120.33,162.70
45.00,119.76,148.20
49.80,119.21,134.40
55.20,118.75,130.90
60.00,118.24,118.80
64.80,117.83,111.70
70.20,117.35,106.30
75.00,116.97,107.00
79.80,116.53,101.10
85.20,116.15,92.80
90.00,115.73,94.10
94.80,115.40,94.20
100.20,115.00,93.30
105.00,114.67,87.30
109.80,114.29,87.70
115.20,113.96,82.50
120.00,113.62,82.40
124.80,113.32,84.10
130.20,112.97,79.00
135.00,112.67,78.10
139.80,112.36,78.00
145.20,112.05,77.30
150.00,111.74,78.00
154.80,111.45,76.30
160.20,111.12,74.50
165.00,110.83,74.00
169.80,110.53,75.60
175.20,110.26,74.70
180.00,109.96,73.10
184.80,109.68,71.90
190.20,109.36,72.10
195.00,109.08,67.30
199.80,108.81,67.90
205.20,108.50,67.50
210.00,108.22,69.10
214.80,107.97,70.00
220.20,107.66,70.20
225.00,107.38,69.10
229.80,107.09,68.30
235.20,106.84,69.70
240.00,106.54,70.10
244.80,106.29,68.60
250.20,105.99,68.20
255.00,105.73,70.50
259.80,105.43,70.40
265.20,105.17,68.50
270.00,104.88,67.10
274.80,104.62,67.60
280.20,104.34,68.20
285.00,104.08,68.10
289.80,103.80,67.80
295.20,103.56,67.80
300.00,103.25,68.50
304.80,103.01,68.20
310.20,102.72,66.20
315.00,102.47,66.40
319.80,102.16,71.10
325.20,101.91,64.00
330.00,101.66,64.70
334.80,101.37,65.60
340.20,101.11,67.40
345.00,100.85,67.50
349.80,100.56,67.20
355.20,100.32,67.80
360.00,100.03,67.60
364.80,99.77,68.50
370.20,99.48,67.90
375.00,99.24,68.70
379.80,98.94,65.80
385.20,98.69,66.90
390.00,98.41,67.10
394.80,98.17,67.90
400.20,97.89,66.80
405.00,97.62,68.00
409.80,97.35,67.30
415.20,97.11,68.10
420.00,96.80,66.90
424.80,96.54,66.70
430.20,96.30,67.20
435.00,96.03,66.80
439.80,95.77,65.70
445.20,95.48,65.00
450.00,95.22,65.30
454.80,94.98,65.20
460.20,94.69,64.80
465.00,94.43,63.80
469.80,94.15,64.70
475.20,93.90,65.10
480.00,93.63,65.80
484.80,93.39,64.70
490.20,93.09,63.70
495.00,92.84,65.00
499.80,92.61,64.80
505.20,92.31,64.00
510.00,92.09,64.00
514.80,91.81,65.10
520.20,91.55,66.50
525.00,91.25,66.80
529.80,91.00,65.90
535.20,90.74,66.90
540.00,90.48,67.10
544.80,90.23,67.90
550.20,89.95,67.00
555.00,89.70,67.60
559.80,89.44,69.20
565.20,89.19,68.80
570.00,88.89,67.30
574.80,88.65,65.60
580.20,88.40,65.50
585.00,88.11,66.00
589.80,87.89,66.10
595.20,87.59,64.40
600.00,87.34,71.40
604.80,87.09,61.90
610.20,86.83,61.80
615.00,86.59,62.50
619.80,86.32,68.50
625.20,86.06,62.70
630.00,85.78,62.50
634.80,85.54,63.30
640.20,85.29,63.90
645.00,85.00,70.00
649.80,84.76,67.70
655.20,84.52,65.30
660.00,84.23,64.40
664.80,83.97,65.70
670.20,83.73,66.00
675.00,83.46,66.10
679.80,83.20,65.30
685.20,82.94,66.30
690.00,82.68,66.80
694.80,82.46,66.90
700.20,82.18,67.90
705.00,81.91,66.60
709.80,81.64,68.10
715.20,81.42,68.20
720.00,81.15,67.00
724.80,80.89,66.00
730.20,80.66,67.20
735.00,80.37,68.30
739.80,80.11,68.30
745.20,79.88,67.50
750.00,79.62,67.10
754.80,79.37,69.10
760.20,79.08,69.10
765.00,78.82,68.40
769.80,78.60,67.50
775.20,78.32,73.00
780.00,78.08,72.00
784.80,77.84,69.70
790.20,77.54,69.10
795.00,77.29,68.80
799.80,77.04,70.80
805.20,76.78,70.90
810.00,76.54,69.60
814.80,76.25,69.70
820.20,76.01,71.30
825.00,75.77,72.20
829.80,75.50,71.30
835.20,75.27,70.30
840.00,74.97,69.80
844.80,74.72,69.70
850.20,74.48,69.80
855.00,74.20,68.40
859.80,73.94,69.70
865.20,73.68,71.10
870.00,73.42,71.60
874.80,73.19,70.60
880.20,72.92,71.60
885.00,72.66,72.40
889.80,72.39,72.20
895.20,72.17,72.00
900.00,71.88,71.70
904.80,71.64,72.50
910.20,71.38,74.00
915.00,71.12,73.20
919.80,70.82,72.30
925.20,70.57,78.00
930.00,70.34,77.40
934.80,70.03,76.80
940.20,69.78,76.10
945.00,69.51,81.70
949.80,69.24,81.00
955.20,69.01,79.30
960.00,68.71,77.80
964.80,68.44,76.20
970.20,68.18,76.80
975.00,67.89,77.70
979.80,67.63,78.30
985.20,67.38,77.70
990.00,67.09,78.30
994.80,66.82,82.90
1000.20,66.57,77.50
1005.00,66.27,78.40
1009.80,66.01,78.30
1015.20,65.71,79.10
1020.00,65.42,80.20
1024.80,65.16,80.50
1030.20,64.86,79.80
1035.00,64.58,81.10
1039.80,64.32,81.90
1045.20,64.01,82.80
1050.00,63.72,82.40
1054.80,63.47,88.10
1060.20,63.17,87.60
1065.00,62.88,82.30
1069.80,62.59,82.90
1075.20,62.30,83.80
1080.00,62.00,85.80
1084.80,61.71,86.50
1090.20,61.39,86.50
1095.00,61.13,86.00
1099.80,60.78,86.90
1105.20,60.50,88.00
1110.00,60.19,88.40
1114.80,59.88,87.80
1120.20,59.60,94.90
1125.00,59.26,93.70
1129.80,58.98,92.20
1135.20,58.64,90.90
1140.00,58.36,89.30
1144.80,58.00,95.70
1150.20,57.69,94.50
1155.00,57.38,92.60
1159.80,57.04,93.00
1165.20,56.72,98.30
1170.00,56.39,97.80
1174.80,56.09,98.30
1180.20,55.72,93.40
1185.00,55.40,100.30
1189.80,55.07,100.90
1195.20,54.72,100.00
1200.00,54.40,97.70
1204.80,54.04,95.90
1210.20,53.71,96.70
1215.00,53.35,98.50
1219.80,53.05,99.20
1225.20,52.66,101.70
1230.00,52.33,105.00
1234.80,51.99,105.00
1240.20,51.63,103.90
1245.00,51.31,102.20
1249.80,50.90,100.20
1255.20,50.59,101.20
1260.00,50.26,103.30
1264.80,49.88,102.20
1270.20,49.53,101.60
1275.00,49.22,106.80
1279.80,48.80,105.90
1285.20,48.44,104.30
1290.00,48.14,103.10
1294.80,47.73,103.70
1300.20,47.39,104.10
1305.00,47.05,104.00
1309.80,46.67,104.00
1315.20,46.34,100.90
1320.00,45.95,105.50
1324.80,45.60,99.10
1330.20,45.25,99.30
1335.00,44.88,103.70
1339.80,44.55,104.40
1345.20,44.17,104.20
1350.00,43.82,103.50
1354.80,43.50,101.90
1360.20,43.10,102.40
1365.00,42.75,104.30
1369.80,42.42,104.60
1375.20,42.06,104.10
1380.00,41.70,101.90
1384.80,41.34,103.70
1390.20,41.03,103.00
1395.00,40.63,102.60
1399.80,40.29,101.30
1405.20,39.97,101.70
1410.00,39.61,100.60
1414.80,39.28,94.80
1420.20,38.92,96.70
1425.00,38.61,98.70
1429.80,38.24,100.10
1435.20,37.92,99.00
1440.00,37.62,98.50
1444.80,37.26,97.90
1450.20,36.95,103.00
1455.00,36.57,95.20
1459.80,36.26,95.70
1465.20,35.93,95.80
1470.00,35.62,96.70
1474.80,35.31,96.10
1480.20,34.98,90.20
1485.00,34.69,91.10
1489.80,34.35,92.00
1495.20,34.07,93.70
1500.00,33.75,95.00
1504.80,33.46,94.60
1510.20,33.12,91.70
1515.00,32.86,92.20
1519.80,32.61,94.20
1525.20,32.29,91.10
1530.00,32.01,88.70
1534.80,31.77,89.20
1540.20,31.47,88.00
1545.00,31.22,83.40
1549.80,30.99,81.60
1555.20,30.70,83.20
1560.00,30.46,83.00
1564.80,30.23,82.00
1570.20,29.99,76.30
1575.00,29.78,76.50
1579.80,29.53,77.80
1585.20,29.31,72.40
1590.00,29.11,72.60
1594.80,28.88,73.60
1600.20,28.68,73.40
1605.00,28.48,73.40
1609.80,28.28,68.00
1615.20,28.11,67.30
1620.00,27.90,67.80
1624.80,27.72,67.60
1630.20,27.57,62.60
1635.00,27.37,63.60
1639.80,27.21,64.30
1645.20,27.08,65.40
1650.00,26.90,59.50
1654.80,26.75,60.30
1660.20,26.61,59.70
1665.00,26.46,61.40
1669.80,26.33,62.90
1675.20,26.19,55.50
1680.00,26.05,56.00
1684.80,25.92,57.50
1690.20,25.80,59.20
1695.00,25.66,60.50
1699.80,25.53,54.80
1705.20,25.43,54.20
1710.00,25.33,55.30
1714.80,25.21,54.90
1720.20,25.11,55.10
1725.00,24.99,54.40
1729.80,24.88,52.30
1735.20,24.79,54.20
1740.00,24.69,53.80
1744.80,24.60,52.40
1750.20,24.49,52.00
1755.00,24.40,57.60
1759.80,24.32,49.50
1765.20,24.23,49.40
1770.00,24.16,49.10
1774.80,24.05,50.60
1780.20,23.98,51.20
1785.00,23.86,50.80
1789.80,23.79,50.20
1795.20,23.70,49.60
1800.00,23.62,50.70
1804.80,23.53,50.60
