##Temp./?C,Time/min,DSC/(uV/mg),Mass/%,Gas Flow(purge2)/(ml/min),Gas Flow(protective)/(ml/min),DTG/(%/min),Sensit./(uV/mW)
39.979,0,-3.40E-03,100,0.00E+00,70,6.15784,1
40.479,0.67557,-1.74E-02,100,0.00E+00,70,-0.15823,1
40.979,0.88601,-2.43E-02,99.93101,0.00E+00,70,-0.39217,1
41.479,1.04133,-3.04E-02,99.85115,0.00E+00,70,-0.45203,1
41.979,1.16994,-3.48E-02,99.79007,0.00E+00,70,-0.46019,1
42.479,1.282,-3.96E-02,99.72517,0.00E+00,70,-0.4415,1
42.979,1.38296,-4.16E-02,99.67422,0.00E+00,70,-0.41055,1
43.479,1.47622,-4.51E-02,99.64558,0.00E+00,70,-0.37717,1
43.979,1.56428,-4.63E-02,99.63279,0.00E+00,70,-0.34657,1
44.479,1.64853,-4.79E-02,99.58869,0.00E+00,70,-0.32075,1
44.979,1.7299,-4.91E-02,99.55985,0.00E+00,70,-0.29997,1
45.479,1.80861,-4.94E-02,99.54373,0.00E+00,70,-0.28391,1
45.979,1.88487,-4.87E-02,99.52931,0.00E+00,70,-0.27174,1
46.479,1.95902,-5.06E-02,99.51505,0.00E+00,70,-0.26208,1
46.979,2.03129,-4.97E-02,99.48601,0.00E+00,70,-0.25321,1
47.479,2.1022,-4.89E-02,99.47448,0.00E+00,70,-0.24349,1
47.979,2.17179,-4.81E-02,99.45354,0.00E+00,70,-0.23203,1
48.479,2.24014,-4.86E-02,99.42646,0.00E+00,70,-0.21901,1
48.979,2.30757,-4.82E-02,99.41879,0.00E+00,70,-0.20556,1
49.479,2.37416,-4.75E-02,99.40718,0.00E+00,70,-0.19341,1
49.979,2.44001,-4.74E-02,99.39376,0.00E+00,70,-0.18414,1
50.479,2.50549,-4.78E-02,99.3868,0.00E+00,70,-0.17855,1
50.979,2.57026,-4.69E-02,99.38353,0.00E+00,70,-0.1764,1
51.479,2.63427,-4.67E-02,99.376,0.00E+00,70,-0.17641,1
51.979,2.69769,-4.66E-02,99.36643,0.00E+00,70,-0.17681,1
52.479,2.76021,-4.61E-02,99.34702,0.00E+00,70,-0.17604,1
52.979,2.82191,-4.70E-02,99.32049,0.00E+00,70,-0.17327,1
53.479,2.88293,-4.71E-02,99.3148,0.00E+00,70,-0.16856,1
53.979,2.9432,-4.75E-02,99.30384,0.00E+00,70,-0.16269,1
54.479,3.00289,-4.76E-02,99.29906,0.00E+00,70,-0.15673,1
54.979,3.06213,-4.81E-02,99.29629,0.00E+00,70,-0.15166,1
55.479,3.12084,-4.88E-02,99.29178,0.00E+00,70,-0.14809,1
55.979,3.17897,-4.94E-02,99.27649,0.00E+00,70,-0.14621,1
56.479,3.23644,-5.14E-02,99.26658,0.00E+00,70,-0.14588,1
56.979,3.29331,-5.24E-02,99.26161,0.00E+00,70,-0.14684,1
57.479,3.34957,-5.31E-02,99.2547,0.00E+00,70,-0.14889,1
57.979,3.40523,-5.29E-02,99.24637,0.00E+00,70,-0.15196,1
58.479,3.46024,-5.57E-02,99.23657,0.00E+00,70,-0.15612,1
58.979,3.51465,-5.63E-02,99.22582,0.00E+00,70,-0.16149,1
59.479,3.56833,-5.78E-02,99.21774,0.00E+00,70,-0.16806,1
59.979,3.62148,-5.92E-02,99.21363,0.00E+00,70,-0.17568,1
60.479,3.67409,-6.02E-02,99.20813,0.00E+00,70,-0.18394,1
60.979,3.72618,-6.16E-02,99.19935,0.00E+00,70,-0.19219,1
61.479,3.77784,-6.37E-02,99.19016,0.00E+00,70,-0.1997,1
61.979,3.82902,-6.54E-02,99.1771,0.00E+00,70,-0.20572,1
62.479,3.87973,-6.68E-02,99.16092,0.00E+00,70,-0.20969,1
62.979,3.93009,-6.84E-02,99.14449,0.00E+00,70,-0.21134,1
63.479,3.98009,-7.03E-02,99.13001,0.00E+00,70,-0.2107,1
63.979,4.02974,-7.22E-02,99.12164,0.00E+00,70,-0.2081,1
64.479,4.0791,-7.35E-02,99.11149,0.00E+00,70,-0.2041,1
64.979,4.12807,-7.49E-02,99.10007,0.00E+00,70,-0.19935,1
65.479,4.17662,-7.71E-02,99.09181,0.00E+00,70,-0.1945,1
65.979,4.22477,-7.84E-02,99.0864,0.00E+00,70,-0.19007,1
66.479,4.27255,-7.94E-02,99.08018,0.00E+00,70,-0.18638,1
66.979,4.31995,-8.15E-02,99.07169,0.00E+00,70,-0.1836,1
67.479,4.36701,-8.40E-02,99.06296,0.00E+00,70,-0.1817,1
67.979,4.41376,-8.55E-02,99.05196,0.00E+00,70,-0.18056,1
68.479,4.46024,-8.61E-02,99.04251,0.00E+00,70,-0.18001,1
68.979,4.50651,-8.89E-02,99.03733,0.00E+00,70,-0.17984,1
69.479,4.55253,-9.02E-02,99.0313,0.00E+00,70,-0.17991,1
69.979,4.59839,-9.29E-02,99.0221,0.00E+00,70,-0.18016,1
70.479,4.64405,-9.41E-02,99.01682,0.00E+00,70,-0.18063,1
70.979,4.68956,-9.65E-02,99.00258,0.00E+00,70,-0.18144,1
71.479,4.73484,-9.80E-02,98.98567,0.00E+00,70,-0.18282,1
71.979,4.7799,-9.96E-02,98.98058,0.00E+00,70,-0.18503,1
72.479,4.82477,-0.10238,98.98052,0.00E+00,70,-0.18832,1
72.979,4.86951,-0.10406,98.97608,0.00E+00,70,-0.19291,1
73.479,4.91415,-0.10509,98.96849,0.00E+00,70,-0.1989,1
73.979,4.95864,-0.10768,98.95929,0.00E+00,70,-0.20626,1
74.479,5.00301,-0.11007,98.94941,0.00E+00,70,-0.21479,1
74.979,5.04731,-0.11136,98.94065,0.00E+00,70,-0.22415,1
75.479,5.09144,-0.11378,98.93208,0.00E+00,70,-0.23385,1
75.979,5.13535,-0.11615,98.92173,0.00E+00,70,-0.24331,1
76.479,5.17905,-0.11822,98.90989,0.00E+00,70,-0.25196,1
76.979,5.22263,-0.11999,98.8985,0.00E+00,70,-0.25927,1
77.479,5.2661,-0.12212,98.88793,0.00E+00,70,-0.26479,1
77.979,5.30944,-0.12457,98.87492,0.00E+00,70,-0.2682,1
78.479,5.35271,-0.12666,98.85582,0.00E+00,70,-0.2694,1
78.979,5.3959,-0.12997,98.83415,0.00E+00,70,-0.26841,1
79.479,5.43909,-0.13244,98.82086,0.00E+00,70,-0.26546,1
79.979,5.48216,-0.13434,98.81406,0.00E+00,70,-0.26092,1
80.479,5.52509,-0.13725,98.80649,0.00E+00,70,-0.25524,1
80.979,5.56793,-0.14025,98.79497,0.00E+00,70,-0.24886,1
81.479,5.61065,-0.14296,98.78253,0.00E+00,70,-0.24222,1
81.979,5.65326,-0.14614,98.77371,0.00E+00,70,-0.23565,1
82.479,5.6958,-0.14816,98.76753,0.00E+00,70,-0.22938,1
82.979,5.73827,-0.15128,98.75845,0.00E+00,70,-0.22351,1
83.479,5.78064,-0.15417,98.74874,0.00E+00,70,-0.21803,1
83.979,5.82291,-0.15742,98.73948,0.00E+00,70,-0.21287,1
84.479,5.86515,-0.16104,98.72988,0.00E+00,70,-0.2079,1
84.979,5.90731,-0.16389,98.72081,0.00E+00,70,-0.20299,1
85.479,5.9493,-0.16704,98.71368,0.00E+00,70,-0.19805,1
85.979,5.99119,-0.17163,98.70662,0.00E+00,70,-0.19305,1
86.479,6.03304,-0.17485,98.6972,0.00E+00,70,-0.18802,1
86.979,6.07485,-0.17812,98.68502,0.00E+00,70,-0.1831,1
87.479,6.11658,-0.18227,98.6735,0.00E+00,70,-0.17848,1
87.979,6.15822,-0.18585,98.66699,0.00E+00,70,-0.17438,1
88.479,6.19985,-0.18901,98.66528,0.00E+00,70,-0.17099,1
88.979,6.24149,-0.19349,98.66248,0.00E+00,70,-0.16848,1
89.479,6.28302,-0.19676,98.65695,0.00E+00,70,-0.16691,1
89.979,6.32446,-0.20062,98.64988,0.00E+00,70,-0.16621,1
90.479,6.36585,-0.20455,98.64288,0.00E+00,70,-0.16619,1
90.979,6.40721,-0.20788,98.63718,0.00E+00,70,-0.16655,1
91.479,6.44853,-0.21302,98.63321,0.00E+00,70,-0.16692,1
91.979,6.48977,-0.21782,98.6288,0.00E+00,70,-0.16689,1
92.479,6.53102,-0.22123,98.61861,0.00E+00,70,-0.16612,1
92.979,6.57227,-0.22523,98.60817,0.00E+00,70,-0.16431,1
93.479,6.6135,-0.22961,98.59862,0.00E+00,70,-0.16136,1
93.979,6.65469,-0.23332,98.58569,0.00E+00,70,-0.15729,1
94.479,6.69582,-0.23809,98.5733,0.00E+00,70,-0.15228,1
94.979,6.73687,-0.24323,98.56818,0.00E+00,70,-0.14666,1
95.479,6.77788,-0.24716,98.56591,0.00E+00,70,-0.14081,1
95.979,6.81886,-0.25077,98.56461,0.00E+00,70,-0.13515,1
96.479,6.85981,-0.25507,98.56311,0.00E+00,70,-0.13002,1
96.979,6.9007,-0.25957,98.5587,0.00E+00,70,-0.12573,1
97.479,6.94163,-0.26408,98.55348,0.00E+00,70,-0.12242,1
97.979,6.98265,-0.26825,98.55007,0.00E+00,70,-0.12016,1
98.479,7.02372,-0.27209,98.54691,0.00E+00,70,-0.11886,1
98.979,7.06476,-0.27678,98.54184,0.00E+00,70,-0.11838,1
99.479,7.10578,-0.28166,98.53571,0.00E+00,70,-0.11848,1
99.979,7.14685,-0.28465,98.53069,0.00E+00,70,-0.11892,1
100.479,7.18791,-0.28886,98.52565,0.00E+00,70,-0.11945,1
100.979,7.22889,-0.29361,98.52052,0.00E+00,70,-0.11983,1
101.479,7.2698,-0.29808,98.51555,0.00E+00,70,-0.11988,1
101.979,7.31074,-0.30218,98.51027,0.00E+00,70,-0.11947,1
102.479,7.35175,-0.30626,98.50403,0.00E+00,70,-0.11851,1
102.979,7.39279,-0.31108,98.49777,0.00E+00,70,-0.11692,1
103.479,7.43379,-0.31554,98.49366,0.00E+00,70,-0.1147,1
103.979,7.47485,-0.31942,98.48833,0.00E+00,70,-0.11184,1
104.479,7.51601,-0.32328,98.48254,0.00E+00,70,-0.10836,1
104.979,7.55719,-0.32737,98.47906,0.00E+00,70,-0.10431,1
105.479,7.59835,-0.33124,98.476,0.00E+00,70,-9.98E-02,1
105.979,7.6395,-0.33454,98.47095,0.00E+00,70,-9.48E-02,1
106.479,7.6807,-0.33843,98.46645,0.00E+00,70,-8.96E-02,1
106.979,7.72192,-0.34237,98.46265,0.00E+00,70,-8.44E-02,1
107.479,7.76314,-0.34614,98.4582,0.00E+00,70,-7.93E-02,1
107.979,7.80438,-0.35048,98.45299,0.00E+00,70,-7.45E-02,1
108.479,7.84566,-0.35503,98.44882,0.00E+00,70,-7.04E-02,1
108.979,7.88699,-0.35887,98.4484,0.00E+00,70,-6.70E-02,1
109.479,7.92838,-0.36255,98.44868,0.00E+00,70,-6.45E-02,1
109.979,7.96984,-0.36637,98.44857,0.00E+00,70,-6.28E-02,1
110.479,8.01134,-0.37004,98.44861,0.00E+00,70,-6.18E-02,1
110.979,8.05288,-0.37369,98.44859,0.00E+00,70,-6.12E-02,1
111.479,8.09443,-0.37767,98.44859,0.00E+00,70,-6.09E-02,1
111.979,8.136,-0.38072,98.44775,0.00E+00,70,-6.03E-02,1
112.479,8.17757,-0.38406,98.43988,0.00E+00,70,-5.92E-02,1
112.979,8.21914,-0.38802,98.42921,0.00E+00,70,-5.74E-02,1
113.479,8.26071,-0.392,98.4225,0.00E+00,70,-5.46E-02,1
113.979,8.3023,-0.39593,98.41868,0.00E+00,70,-5.10E-02,1
114.479,8.34393,-0.39983,98.41714,0.00E+00,70,-4.64E-02,1
114.979,8.38559,-0.403,98.42368,0.00E+00,70,-4.13E-02,1
115.479,8.42727,-0.40658,98.42274,0.00E+00,70,-3.58E-02,1
115.979,8.46897,-0.41102,98.41669,0.00E+00,70,-3.03E-02,1
116.479,8.51071,-0.4148,98.41499,0.00E+00,70,-2.50E-02,1
116.979,8.55254,-0.41744,98.41521,0.00E+00,70,-2.03E-02,1
117.479,8.59444,-0.42129,98.41626,0.00E+00,70,-1.61E-02,1
117.979,8.63639,-0.42461,98.41729,0.00E+00,70,-1.28E-02,1
118.479,8.67839,-0.42858,98.41846,0.00E+00,70,-1.02E-02,1
118.979,8.72047,-0.43221,98.41895,0.00E+00,70,-8.28E-03,1
119.479,8.76259,-0.43489,98.41893,0.00E+00,70,-7.05E-03,1
119.979,8.80467,-0.43828,98.41879,0.00E+00,70,-6.39E-03,1
120.479,8.84673,-0.44206,98.41767,0.00E+00,70,-6.22E-03,1
120.979,8.88881,-0.44416,98.41784,0.00E+00,70,-6.52E-03,1
121.479,8.93095,-0.44773,98.41569,0.00E+00,70,-7.28E-03,1
121.979,8.97309,-0.45258,98.41197,0.00E+00,70,-8.53E-03,1
122.479,9.01522,-0.45639,98.41255,0.00E+00,70,-1.03E-02,1
122.979,9.05742,-0.45942,98.41698,0.00E+00,70,-1.26E-02,1
123.479,9.09973,-0.46351,98.41765,0.00E+00,70,-1.54E-02,1
123.979,9.14207,-0.46754,98.41648,0.00E+00,70,-1.86E-02,1
124.479,9.18438,-0.47038,98.41714,0.00E+00,70,-2.20E-02,1
124.979,9.22671,-0.4738,98.41825,0.00E+00,70,-2.53E-02,1
125.479,9.26914,-0.47712,98.4196,0.00E+00,70,-2.83E-02,1
125.979,9.31156,-0.48041,98.41734,0.00E+00,70,-3.05E-02,1
126.479,9.35386,-0.48475,98.40965,0.00E+00,70,-3.19E-02,1
126.979,9.39614,-0.48781,98.40564,0.00E+00,70,-3.23E-02,1
127.479,9.43848,-0.49147,98.40045,0.00E+00,70,-3.18E-02,1
127.979,9.48086,-0.49522,98.39647,0.00E+00,70,-3.03E-02,1
128.479,9.5232,-0.49864,98.39429,0.00E+00,70,-2.81E-02,1
128.979,9.56559,-0.50176,98.39486,0.00E+00,70,-2.55E-02,1
129.479,9.60817,-0.5049,98.3986,0.00E+00,70,-2.27E-02,1
129.979,9.65084,-0.50857,98.40158,0.00E+00,70,-1.98E-02,1
130.479,9.69351,-0.51213,98.40169,0.00E+00,70,-1.71E-02,1
130.979,9.73622,-0.51555,98.40059,0.00E+00,70,-1.46E-02,1
131.479,9.77902,-0.51887,98.39987,0.00E+00,70,-1.22E-02,1
131.979,9.82188,-0.52256,98.3974,0.00E+00,70,-9.92E-03,1
132.479,9.86474,-0.52637,98.39492,0.00E+00,70,-7.73E-03,1
132.979,9.90761,-0.52936,98.39363,0.00E+00,70,-5.67E-03,1
133.479,9.95057,-0.53168,98.39038,0.00E+00,70,-3.84E-03,1
133.979,9.99357,-0.53492,98.39133,0.00E+00,70,-2.44E-03,1
134.479,10.03656,-0.54021,98.39329,0.00E+00,70,-1.70E-03,1
134.979,10.07956,-0.54358,98.39654,0.00E+00,70,-1.91E-03,1
135.479,10.12258,-0.5454,98.39817,0.00E+00,70,-3.31E-03,1
135.979,10.16559,-0.54847,98.39775,0.00E+00,70,-6.07E-03,1
136.479,10.2086,-0.55254,98.39783,0.00E+00,70,-1.02E-02,1
136.979,10.25163,-0.55595,98.39784,0.00E+00,70,-1.56E-02,1
137.479,10.2947,-0.55906,98.39884,0.00E+00,70,-2.20E-02,1
137.979,10.33783,-0.56184,98.40106,0.00E+00,70,-2.90E-02,1
138.479,10.38103,-0.56485,98.40217,0.00E+00,70,-3.60E-02,1
138.979,10.4243,-0.5686,98.40418,0.00E+00,70,-4.23E-02,1
139.479,10.46765,-0.57169,98.40161,0.00E+00,70,-4.75E-02,1
139.979,10.51108,-0.57468,98.39137,0.00E+00,70,-5.10E-02,1
140.479,10.55454,-0.57884,98.38057,0.00E+00,70,-5.26E-02,1
140.979,10.59803,-0.58139,98.37088,0.00E+00,70,-5.22E-02,1
141.479,10.64158,-0.58525,98.36815,0.00E+00,70,-5.00E-02,1
141.979,10.68517,-0.58895,98.3681,0.00E+00,70,-4.63E-02,1
142.479,10.7288,-0.59145,98.36815,0.00E+00,70,-4.17E-02,1
142.979,10.77246,-0.59371,98.36804,0.00E+00,70,-3.66E-02,1
143.479,10.8162,-0.59696,98.36838,0.00E+00,70,-3.17E-02,1
143.979,10.86001,-0.60125,98.3697,0.00E+00,70,-2.72E-02,1
144.479,10.90387,-0.605,98.37058,0.00E+00,70,-2.34E-02,1
144.979,10.94775,-0.607,98.36944,0.00E+00,70,-2.04E-02,1
145.479,10.99165,-0.61004,98.36819,0.00E+00,70,-1.82E-02,1
145.979,11.0356,-0.61354,98.36828,0.00E+00,70,-1.66E-02,1
146.479,11.07955,-0.617,98.36678,0.00E+00,70,-1.54E-02,1
146.979,11.12352,-0.61991,98.36475,0.00E+00,70,-1.45E-02,1
147.479,11.16754,-0.62289,98.36451,0.00E+00,70,-1.38E-02,1
147.979,11.21164,-0.62646,98.36398,0.00E+00,70,-1.32E-02,1
148.479,11.25582,-0.62948,98.36167,0.00E+00,70,-1.29E-02,1
148.979,11.30006,-0.63197,98.36069,0.00E+00,70,-1.28E-02,1
149.479,11.34438,-0.63511,98.36062,0.00E+00,70,-1.31E-02,1
149.979,11.38875,-0.6386,98.36158,0.00E+00,70,-1.40E-02,1
150.479,11.4332,-0.64097,98.36288,0.00E+00,70,-1.57E-02,1
150.979,11.4777,-0.64395,98.36322,0.00E+00,70,-1.81E-02,1
151.479,11.5222,-0.64735,98.36324,0.00E+00,70,-2.13E-02,1
151.979,11.56675,-0.65049,98.36284,0.00E+00,70,-2.52E-02,1
152.479,11.61135,-0.65351,98.36167,0.00E+00,70,-2.97E-02,1
152.979,11.65599,-0.65594,98.36045,0.00E+00,70,-3.45E-02,1
153.479,11.70068,-0.65903,98.35818,0.00E+00,70,-3.94E-02,1
153.979,11.74546,-0.66221,98.35598,0.00E+00,70,-4.42E-02,1
154.479,11.79033,-0.66436,98.35356,0.00E+00,70,-4.86E-02,1
154.979,11.83526,-0.66709,98.35275,0.00E+00,70,-5.26E-02,1
155.479,11.88027,-0.67029,98.34854,0.00E+00,70,-5.59E-02,1
155.979,11.92532,-0.67329,98.34304,0.00E+00,70,-5.86E-02,1
156.479,11.97044,-0.67614,98.33924,0.00E+00,70,-6.07E-02,1
156.979,12.01564,-0.67869,98.33628,0.00E+00,70,-6.25E-02,1
157.479,12.06092,-0.68101,98.33422,0.00E+00,70,-6.41E-02,1
157.979,12.1063,-0.68349,98.33178,0.00E+00,70,-6.60E-02,1
158.479,12.1517,-0.68591,98.32838,0.00E+00,70,-6.83E-02,1
158.979,12.19716,-0.68902,98.32613,0.00E+00,70,-7.13E-02,1
159.479,12.24263,-0.69175,98.32402,0.00E+00,70,-7.51E-02,1
159.979,12.28805,-0.69405,98.32058,0.00E+00,70,-7.98E-02,1
160.479,12.33346,-0.69667,98.31881,0.00E+00,70,-8.50E-02,1
160.979,12.3789,-0.69907,98.31828,0.00E+00,70,-9.06E-02,1
161.479,12.42439,-0.70131,98.3194,0.00E+00,70,-9.59E-02,1
161.979,12.46993,-0.70333,98.31179,0.00E+00,70,-0.10051,1
162.479,12.51561,-0.70523,98.30011,0.00E+00,70,-0.10384,1
162.979,12.56146,-0.70808,98.2959,0.00E+00,70,-0.10549,1
163.479,12.60735,-0.71112,98.28604,0.00E+00,70,-0.10524,1
163.979,12.65333,-0.71309,98.27711,0.00E+00,70,-0.10313,1
164.479,12.69935,-0.71591,98.26916,0.00E+00,70,-9.95E-02,1
164.979,12.74546,-0.71823,98.26436,0.00E+00,70,-9.48E-02,1
165.479,12.79148,-0.72124,98.26308,0.00E+00,70,-8.98E-02,1
165.979,12.83761,-0.7231,98.26113,0.00E+00,70,-8.53E-02,1
166.479,12.88381,-0.72554,98.25856,0.00E+00,70,-8.20E-02,1
166.979,12.93006,-0.72805,98.2572,0.00E+00,70,-8.05E-02,1
167.479,12.97633,-0.7303,98.25552,0.00E+00,70,-8.13E-02,1
167.979,13.02268,-0.73301,98.25295,0.00E+00,70,-8.44E-02,1
168.479,13.06909,-0.73538,98.25118,0.00E+00,70,-8.99E-02,1
168.979,13.11546,-0.73698,98.25008,0.00E+00,70,-9.72E-02,1
169.479,13.1619,-0.73941,98.24909,0.00E+00,70,-0.10597,1
169.979,13.20838,-0.74304,98.24544,0.00E+00,70,-0.1154,1
170.479,13.2549,-0.74593,98.23606,0.00E+00,70,-0.12478,1
170.979,13.30146,-0.74765,98.22915,0.00E+00,70,-0.1335,1
171.479,13.34818,-0.74977,98.21748,0.00E+00,70,-0.14111,1
171.979,13.39494,-0.7521,98.20923,0.00E+00,70,-0.14737,1
172.479,13.44176,-0.75517,98.20026,0.00E+00,70,-0.15236,1
172.979,13.48866,-0.75702,98.18991,0.00E+00,70,-0.15639,1
173.479,13.53562,-0.7592,98.17977,0.00E+00,70,-0.15999,1
173.979,13.58255,-0.76244,98.17448,0.00E+00,70,-0.16376,1
174.479,13.62946,-0.76369,98.17261,0.00E+00,70,-0.16824,1
174.979,13.67639,-0.76613,98.16823,0.00E+00,70,-0.17382,1
175.479,13.72336,-0.76965,98.16207,0.00E+00,70,-0.18065,1
175.979,13.77034,-0.77139,98.15272,0.00E+00,70,-0.18853,1
176.479,13.81739,-0.77346,98.14196,0.00E+00,70,-0.19701,1
176.979,13.86456,-0.77608,98.1364,0.00E+00,70,-0.20542,1
177.479,13.91184,-0.77854,98.13139,0.00E+00,70,-0.21298,1
177.979,13.95918,-0.78153,98.11963,0.00E+00,70,-0.21895,1
178.479,14.00656,-0.78355,98.09928,0.00E+00,70,-0.2228,1
178.979,14.05394,-0.78545,98.08178,0.00E+00,70,-0.22433,1
179.479,14.10128,-0.78781,98.06311,0.00E+00,70,-0.22369,1
179.979,14.14859,-0.79058,98.0526,0.00E+00,70,-0.22139,1
180.479,14.19587,-0.79303,98.04669,0.00E+00,70,-0.21818,1
180.979,14.24315,-0.79495,98.04002,0.00E+00,70,-0.21492,1
181.479,14.29049,-0.79673,98.03051,0.00E+00,70,-0.21242,1
181.979,14.33791,-0.79944,98.02422,0.00E+00,70,-0.21135,1
182.479,14.38536,-0.80225,98.01658,0.00E+00,70,-0.21212,1
182.979,14.43283,-0.80421,98.00914,0.00E+00,70,-0.21485,1
183.479,14.48039,-0.80654,98.001,0.00E+00,70,-0.21944,1
183.979,14.52796,-0.80837,97.98974,0.00E+00,70,-0.22562,1
184.479,14.57549,-0.81068,97.97856,0.00E+00,70,-0.23306,1
184.979,14.62305,-0.81324,97.96749,0.00E+00,70,-0.24147,1
185.479,14.67072,-0.8147,97.95224,0.00E+00,70,-0.25069,1
185.979,14.71841,-0.8165,97.93716,0.00E+00,70,-0.26062,1
186.479,14.7661,-0.8193,97.92591,0.00E+00,70,-0.27121,1
186.979,14.81394,-0.82178,97.91411,0.00E+00,70,-0.28247,1
187.479,14.86187,-0.82359,97.90393,0.00E+00,70,-0.29431,1
187.979,14.90982,-0.82636,97.89424,0.00E+00,70,-0.30649,1
188.479,14.95776,-0.82824,97.88172,0.00E+00,70,-0.31868,1
188.979,15.00581,-0.83043,97.86759,0.00E+00,70,-0.33048,1
189.479,15.05381,-0.83171,97.84804,0.00E+00,70,-0.34144,1
189.979,15.1017,-0.83431,97.81254,0.00E+00,70,-0.35116,1
190.479,15.14957,-0.83684,97.80112,0.00E+00,70,-0.35943,1
190.979,15.19748,-0.83901,97.78705,0.00E+00,70,-0.3662,1
191.479,15.24533,-0.84127,97.77056,0.00E+00,70,-0.37157,1
191.979,15.29324,-0.84333,97.75257,0.00E+00,70,-0.37585,1
192.479,15.34131,-0.84488,97.7367,0.00E+00,70,-0.37944,1
192.979,15.3895,-0.84763,97.71048,0.00E+00,70,-0.3828,1
193.479,15.43772,-0.84955,97.68752,0.00E+00,70,-0.3864,1
193.979,15.48606,-0.85181,97.67362,0.00E+00,70,-0.39068,1
194.479,15.53441,-0.85469,97.65872,0.00E+00,70,-0.39595,1
194.979,15.58272,-0.85708,97.6442,0.00E+00,70,-0.40234,1
195.479,15.63096,-0.85777,97.62745,0.00E+00,70,-0.40984,1
195.979,15.6792,-0.85921,97.60948,0.00E+00,70,-0.41827,1
196.479,15.72736,-0.8619,97.58065,0.00E+00,70,-0.42736,1
196.979,15.7755,-0.86444,97.55917,0.00E+00,70,-0.43675,1
197.479,15.82372,-0.86623,97.54362,0.00E+00,70,-0.44611,1
197.979,15.87202,-0.86897,97.51872,0.00E+00,70,-0.4551,1
198.479,15.92043,-0.87143,97.49513,0.00E+00,70,-0.46347,1
198.979,15.96898,-0.87217,97.47074,0.00E+00,70,-0.47099,1
199.479,16.01764,-0.87428,97.44767,0.00E+00,70,-0.47751,1
199.979,16.06635,-0.87727,97.42551,0.00E+00,70,-0.48289,1
200.479,16.1151,-0.88001,97.40357,0.00E+00,70,-0.48706,1
200.979,16.16381,-0.88193,97.37889,0.00E+00,70,-0.48998,1
201.479,16.21246,-0.88502,97.34665,0.00E+00,70,-0.49168,1
201.979,16.26107,-0.88748,97.32523,0.00E+00,70,-0.4923,1
202.479,16.30967,-0.88863,97.30419,0.00E+00,70,-0.49206,1
202.979,16.35826,-0.89071,97.27549,0.00E+00,70,-0.49131,1
203.479,16.40695,-0.89331,97.25265,0.00E+00,70,-0.49052,1
203.979,16.45572,-0.89627,97.22624,0.00E+00,70,-0.49024,1
204.479,16.5046,-0.89842,97.20611,0.00E+00,70,-0.49107,1
204.979,16.55356,-0.90112,97.18386,0.00E+00,70,-0.49359,1
205.479,16.60259,-0.90213,97.15844,0.00E+00,70,-0.49827,1
205.979,16.65165,-0.90497,97.13797,0.00E+00,70,-0.50545,1
206.479,16.70074,-0.90747,97.11724,0.00E+00,70,-0.51523,1
206.979,16.7498,-0.91025,97.09291,0.00E+00,70,-0.52743,1
207.479,16.79888,-0.91116,97.06856,0.00E+00,70,-0.54165,1
207.979,16.84797,-0.91462,97.04455,0.00E+00,70,-0.55723,1
208.479,16.897,-0.91804,97.0104,0.00E+00,70,-0.57334,1
208.979,16.94606,-0.92022,96.98718,0.00E+00,70,-0.58908,1
209.479,16.99521,-0.92406,96.95664,0.00E+00,70,-0.60355,1
209.979,17.04438,-0.92686,96.93361,0.00E+00,70,-0.61592,1
210.479,17.09356,-0.92843,96.88234,0.00E+00,70,-0.62554,1
210.979,17.14274,-0.93112,96.85035,0.00E+00,70,-0.63201,1
211.479,17.19196,-0.93521,96.8181,0.00E+00,70,-0.63517,1
211.979,17.24113,-0.93664,96.79114,0.00E+00,70,-0.63512,1
212.479,17.29028,-0.93934,96.75543,0.00E+00,70,-0.63219,1
212.979,17.33944,-0.94232,96.72716,0.00E+00,70,-0.62686,1
213.479,17.3887,-0.9455,96.69501,0.00E+00,70,-0.61976,1
213.979,17.43792,-0.94842,96.65947,0.00E+00,70,-0.61166,1
214.479,17.48718,-0.95063,96.62431,0.00E+00,70,-0.60336,1
214.979,17.53651,-0.95397,96.59721,0.00E+00,70,-0.59569,1
215.479,17.58591,-0.95645,96.57605,0.00E+00,70,-0.58942,1
215.979,17.6353,-0.95941,96.54854,0.00E+00,70,-0.58524,1
216.479,17.68478,-0.96258,96.52514,0.00E+00,70,-0.58363,1
216.979,17.7343,-0.96694,96.4923,0.00E+00,70,-0.58488,1
217.479,17.78377,-0.96952,96.46352,0.00E+00,70,-0.58901,1
217.979,17.83321,-0.97239,96.44051,0.00E+00,70,-0.59582,1
218.479,17.88266,-0.976,96.41347,0.00E+00,70,-0.60492,1
218.979,17.93205,-0.97794,96.38828,0.00E+00,70,-0.61573,1
219.479,17.98145,-0.98198,96.34618,0.00E+00,70,-0.62763,1
219.979,18.03091,-0.98543,96.31973,0.00E+00,70,-0.63996,1
220.479,18.08039,-0.98749,96.29107,0.00E+00,70,-0.65204,1
220.979,18.12984,-0.99078,96.25733,0.00E+00,70,-0.66326,1
221.479,18.17935,-0.99342,96.21556,0.00E+00,70,-0.67313,1
221.979,18.22891,-0.99726,96.18287,0.00E+00,70,-0.6813,1
222.479,18.27845,-1.00147,96.15193,0.00E+00,70,-0.68755,1
222.979,18.32802,-1.00391,96.11996,0.00E+00,70,-0.69192,1
223.479,18.37772,-1.00674,96.07528,0.00E+00,70,-0.69464,1
223.979,18.42746,-1.00951,96.03721,0.00E+00,70,-0.69616,1
224.479,18.47722,-1.01285,96.01137,0.00E+00,70,-0.69708,1
224.979,18.52701,-1.01707,95.96545,0.00E+00,70,-0.69813,1
225.479,18.57681,-1.02057,95.93355,0.00E+00,70,-0.69999,1
225.979,18.62656,-1.02335,95.90691,0.00E+00,70,-0.7032,1
226.479,18.67623,-1.02697,95.87587,0.00E+00,70,-0.70806,1
226.979,18.72589,-1.02989,95.84245,0.00E+00,70,-0.71462,1
227.479,18.77555,-1.03313,95.80735,0.00E+00,70,-0.72265,1
227.979,18.82522,-1.03618,95.77139,0.00E+00,70,-0.73171,1
228.479,18.87491,-1.03966,95.7361,0.00E+00,70,-0.74131,1
228.979,18.92468,-1.04414,95.69436,0.00E+00,70,-0.75098,1
229.479,18.97448,-1.04698,95.65019,0.00E+00,70,-0.76038,1
229.979,19.02426,-1.05096,95.61825,0.00E+00,70,-0.76932,1
230.479,19.07404,-1.05518,95.57272,0.00E+00,70,-0.77783,1
230.979,19.12386,-1.05818,95.53509,0.00E+00,70,-0.78602,1
231.479,19.17365,-1.06168,95.50722,0.00E+00,70,-0.79407,1
231.979,19.22342,-1.06489,95.46132,0.00E+00,70,-0.80217,1
232.479,19.27325,-1.06816,95.41815,0.00E+00,70,-0.81047,1
232.979,19.32311,-1.07209,95.38441,0.00E+00,70,-0.81907,1
233.479,19.37295,-1.0753,95.33772,0.00E+00,70,-0.82809,1
233.979,19.42283,-1.07909,95.296,0.00E+00,70,-0.8377,1
234.479,19.47274,-1.08369,95.26168,0.00E+00,70,-0.84808,1
234.979,19.52264,-1.08671,95.20664,0.00E+00,70,-0.85945,1
235.479,19.57253,-1.08986,95.16695,0.00E+00,70,-0.87202,1
235.979,19.62243,-1.0938,95.12977,0.00E+00,70,-0.88594,1
236.479,19.67233,-1.09748,95.08325,0.00E+00,70,-0.90118,1
236.979,19.72225,-1.10126,95.04651,0.00E+00,70,-0.91756,1
237.479,19.77219,-1.10364,95.00186,0.00E+00,70,-0.93478,1
237.979,19.82215,-1.1077,94.9546,0.00E+00,70,-0.95239,1
238.479,19.87213,-1.1116,94.89707,0.00E+00,70,-0.97,1
238.979,19.92213,-1.11468,94.84411,0.00E+00,70,-0.98727,1
239.479,19.97215,-1.11879,94.79894,0.00E+00,70,-1.00405,1
239.979,20.02222,-1.12215,94.74818,0.00E+00,70,-1.02035,1
240.479,20.07232,-1.12601,94.69303,0.00E+00,70,-1.0363,1
240.979,20.12241,-1.13036,94.646,0.00E+00,70,-1.05209,1
241.479,20.17251,-1.13443,94.59144,0.00E+00,70,-1.06793,1
241.979,20.22259,-1.13721,94.53425,0.00E+00,70,-1.08394,1
242.479,20.27259,-1.14098,94.49182,0.00E+00,70,-1.10015,1
242.979,20.32255,-1.14563,94.4297,0.00E+00,70,-1.11653,1
243.479,20.37249,-1.14974,94.37052,0.00E+00,70,-1.13304,1
243.979,20.4224,-1.15295,94.31807,0.00E+00,70,-1.14963,1
244.479,20.47236,-1.15665,94.25325,0.00E+00,70,-1.16635,1
244.979,20.52238,-1.16109,94.19666,0.00E+00,70,-1.18327,1
245.479,20.57244,-1.16441,94.13934,0.00E+00,70,-1.20051,1
245.979,20.62255,-1.16858,94.0768,0.00E+00,70,-1.21816,1
246.479,20.67265,-1.17235,94.01638,0.00E+00,70,-1.23619,1
246.979,20.72266,-1.17582,93.95623,0.00E+00,70,-1.25444,1
247.479,20.77266,-1.17934,93.89608,0.00E+00,70,-1.27271,1
247.979,20.82268,-1.18354,93.83688,0.00E+00,70,-1.29068,1
248.479,20.87267,-1.18745,93.76796,0.00E+00,70,-1.30805,1
248.979,20.92271,-1.19093,93.69166,0.00E+00,70,-1.32461,1
249.479,20.97281,-1.19542,93.62765,0.00E+00,70,-1.34034,1
249.979,21.02293,-1.19995,93.55161,0.00E+00,70,-1.35535,1
250.479,21.07308,-1.20414,93.48499,0.00E+00,70,-1.36993,1
250.979,21.12325,-1.20836,93.42842,0.00E+00,70,-1.3844,1
251.479,21.17346,-1.21221,93.35751,0.00E+00,70,-1.39908,1
251.979,21.22374,-1.21707,93.28236,0.00E+00,70,-1.41415,1
252.479,21.27398,-1.22087,93.21207,0.00E+00,70,-1.42962,1
252.979,21.32419,-1.22466,93.14499,0.00E+00,70,-1.44539,1
253.479,21.37436,-1.22875,93.06826,0.00E+00,70,-1.46125,1
253.979,21.42447,-1.23215,92.99324,0.00E+00,70,-1.477,1
254.479,21.47448,-1.23652,92.91969,0.00E+00,70,-1.49247,1
254.979,21.52445,-1.24071,92.84228,0.00E+00,70,-1.50763,1
255.479,21.57437,-1.24543,92.76603,0.00E+00,70,-1.52253,1
255.979,21.62428,-1.24992,92.69211,0.00E+00,70,-1.53738,1
256.479,21.67421,-1.25356,92.61059,0.00E+00,70,-1.55246,1
256.979,21.72412,-1.25788,92.53444,0.00E+00,70,-1.56809,1
257.479,21.77405,-1.26182,92.46341,0.00E+00,70,-1.58467,1
257.979,21.82408,-1.26734,92.38405,0.00E+00,70,-1.6026,1
258.479,21.87412,-1.27079,92.29758,0.00E+00,70,-1.62223,1
258.979,21.92419,-1.27414,92.21234,0.00E+00,70,-1.64384,1
259.479,21.97438,-1.27922,92.13779,0.00E+00,70,-1.66763,1
259.979,22.02466,-1.28339,92.05203,0.00E+00,70,-1.69354,1
260.479,22.07493,-1.2876,91.97182,0.00E+00,70,-1.72121,1
260.979,22.12521,-1.29104,91.89203,0.00E+00,70,-1.75011,1
261.479,22.17551,-1.2949,91.80386,0.00E+00,70,-1.77948,1
261.979,22.22575,-1.29879,91.70971,0.00E+00,70,-1.80842,1
262.479,22.27594,-1.30239,91.61059,0.00E+00,70,-1.83613,1
262.979,22.32612,-1.30604,91.5138,0.00E+00,70,-1.86192,1
263.479,22.3763,-1.31017,91.41825,0.00E+00,70,-1.88536,1
263.979,22.42649,-1.31444,91.32372,0.00E+00,70,-1.90624,1
264.479,22.4767,-1.31843,91.22978,0.00E+00,70,-1.92461,1
264.979,22.5269,-1.32204,91.1286,0.00E+00,70,-1.94073,1
265.479,22.57712,-1.32622,91.03009,0.00E+00,70,-1.95499,1
265.979,22.62734,-1.33004,90.92988,0.00E+00,70,-1.96784,1
266.479,22.67755,-1.33379,90.83042,0.00E+00,70,-1.97972,1
266.979,22.72775,-1.33801,90.72969,0.00E+00,70,-1.99105,1
267.479,22.77796,-1.342,90.63012,0.00E+00,70,-2.00219,1
267.979,22.82816,-1.34567,90.53546,0.00E+00,70,-2.01346,1
268.479,22.8784,-1.35018,90.43178,0.00E+00,70,-2.0252,1
268.979,22.92863,-1.35338,90.32892,0.00E+00,70,-2.03778,1
269.479,22.9788,-1.35715,90.23002,0.00E+00,70,-2.05168,1
269.979,23.02893,-1.36147,90.1219,0.00E+00,70,-2.06746,1
270.479,23.07905,-1.36603,90.00957,0.00E+00,70,-2.0858,1
270.979,23.12905,-1.36992,89.91436,0.00E+00,70,-2.10725,1
271.479,23.17903,-1.37259,89.815,0.00E+00,70,-2.13228,1
271.979,23.22912,-1.3774,89.70754,0.00E+00,70,-2.16107,1
272.479,23.27925,-1.38125,89.61252,0.00E+00,70,-2.1933,1
272.979,23.32944,-1.38473,89.51099,0.00E+00,70,-2.2282,1
273.479,23.37973,-1.38927,89.38048,0.00E+00,70,-2.26461,1
273.979,23.43011,-1.39304,89.26353,0.00E+00,70,-2.30104,1
274.479,23.4805,-1.39691,89.1552,0.00E+00,70,-2.33586,1
274.979,23.53086,-1.40021,89.0401,0.00E+00,70,-2.36769,1
275.479,23.58122,-1.40377,88.9055,0.00E+00,70,-2.39558,1
275.979,23.63158,-1.40838,88.77309,0.00E+00,70,-2.41907,1
276.479,23.68184,-1.41235,88.65129,0.00E+00,70,-2.43828,1
276.979,23.73206,-1.41657,88.52136,0.00E+00,70,-2.45389,1
277.479,23.78234,-1.42,88.39664,0.00E+00,70,-2.46696,1
277.979,23.83265,-1.42472,88.27807,0.00E+00,70,-2.47864,1
278.479,23.88298,-1.42845,88.15569,0.00E+00,70,-2.4901,1
278.979,23.93337,-1.43218,88.04337,0.00E+00,70,-2.50235,1
279.479,23.98379,-1.43637,87.90809,0.00E+00,70,-2.51611,1
279.979,24.03414,-1.4396,87.77727,0.00E+00,70,-2.53183,1
280.479,24.08439,-1.44444,87.64844,0.00E+00,70,-2.54967,1
280.979,24.13465,-1.44774,87.52736,0.00E+00,70,-2.56969,1
281.479,24.18488,-1.45125,87.4004,0.00E+00,70,-2.59171,1
281.979,24.23513,-1.45596,87.27341,0.00E+00,70,-2.6155,1
282.479,24.28549,-1.46015,87.13994,0.00E+00,70,-2.6408,1
282.979,24.3359,-1.46297,87.00125,0.00E+00,70,-2.66725,1
283.479,24.38626,-1.46735,86.86814,0.00E+00,70,-2.69452,1
283.979,24.43665,-1.47119,86.73478,0.00E+00,70,-2.72238,1
284.479,24.48698,-1.47475,86.59528,0.00E+00,70,-2.75055,1
284.979,24.53719,-1.47888,86.45418,0.00E+00,70,-2.77881,1
285.479,24.58744,-1.4819,86.31523,0.00E+00,70,-2.807,1
285.979,24.63779,-1.48596,86.17072,0.00E+00,70,-2.83484,1
286.479,24.6881,-1.49003,86.02575,0.00E+00,70,-2.86186,1
286.979,24.73854,-1.49403,85.88999,0.00E+00,70,-2.88772,1
287.479,24.78906,-1.4982,85.75544,0.00E+00,70,-2.912,1
287.979,24.8395,-1.5019,85.59166,0.00E+00,70,-2.93448,1
288.479,24.88981,-1.50549,85.43377,0.00E+00,70,-2.95533,1
288.979,24.94014,-1.50932,85.2721,0.00E+00,70,-2.9752,1
289.479,24.99034,-1.51405,85.12458,0.00E+00,70,-2.99502,1
289.979,25.04051,-1.51719,84.98212,0.00E+00,70,-3.01599,1
290.479,25.09071,-1.52082,84.83977,0.00E+00,70,-3.03931,1
290.979,25.14097,-1.52448,84.68905,0.00E+00,70,-3.06593,1
291.479,25.19124,-1.52915,84.53911,0.00E+00,70,-3.09637,1
291.979,25.24153,-1.53285,84.38724,0.00E+00,70,-3.13072,1
292.479,25.29184,-1.53587,84.22789,0.00E+00,70,-3.16865,1
292.979,25.34215,-1.53994,84.07323,0.00E+00,70,-3.20959,1
293.479,25.39246,-1.54311,83.9099,0.00E+00,70,-3.25291,1
293.979,25.44277,-1.54738,83.73465,0.00E+00,70,-3.29802,1
294.479,25.49315,-1.55082,83.56299,0.00E+00,70,-3.34443,1
294.979,25.54346,-1.55382,83.39333,0.00E+00,70,-3.39144,1
295.479,25.59382,-1.55823,83.22886,0.00E+00,70,-3.43843,1
295.979,25.64425,-1.56174,83.06887,0.00E+00,70,-3.48441,1
296.479,25.6946,-1.56448,82.89155,0.00E+00,70,-3.52805,1
296.979,25.74486,-1.56797,82.71775,0.00E+00,70,-3.56814,1
297.479,25.79516,-1.57219,82.52503,0.00E+00,70,-3.60387,1
297.979,25.84542,-1.57537,82.32968,0.00E+00,70,-3.63478,1
298.479,25.89559,-1.57894,82.12961,0.00E+00,70,-3.66124,1
298.979,25.94585,-1.58219,81.93558,0.00E+00,70,-3.68439,1
299.479,25.99618,-1.58578,81.73523,0.00E+00,70,-3.70576,1
299.979,26.04652,-1.58921,81.56718,0.00E+00,70,-3.72699,1
300.479,26.09692,-1.59276,81.41008,0.00E+00,70,-3.74953,1
300.979,26.14727,-1.59535,81.24531,0.00E+00,70,-3.77424,1
301.479,26.19756,-1.59847,81.05481,0.00E+00,70,-3.80145,1
301.979,26.2478,-1.60155,80.83886,0.00E+00,70,-3.83105,1
302.479,26.29803,-1.60656,80.59537,0.00E+00,70,-3.86277,1
302.979,26.34817,-1.60996,80.41583,0.00E+00,70,-3.89619,1
303.479,26.39836,-1.61205,80.24804,0.00E+00,70,-3.93116,1
303.979,26.44854,-1.61468,80.08098,0.00E+00,70,-3.96746,1
304.479,26.49875,-1.61808,79.86937,0.00E+00,70,-4.00492,1
304.979,26.54897,-1.62152,79.64437,0.00E+00,70,-4.04319,1
305.479,26.59924,-1.62371,79.42357,0.00E+00,70,-4.08178,1
305.979,26.64959,-1.62646,79.24122,0.00E+00,70,-4.12004,1
306.479,26.70003,-1.62951,79.05147,0.00E+00,70,-4.15723,1
306.979,26.75047,-1.63266,78.83517,0.00E+00,70,-4.19264,1
307.479,26.80089,-1.63588,78.59049,0.00E+00,70,-4.22584,1
307.979,26.85131,-1.63808,78.37149,0.00E+00,70,-4.25674,1
308.479,26.90164,-1.64181,78.17209,0.00E+00,70,-4.2856,1
308.979,26.95195,-1.64451,77.95816,0.00E+00,70,-4.31305,1
309.479,27.00228,-1.64652,77.73067,0.00E+00,70,-4.33999,1
309.979,27.05267,-1.64952,77.52476,0.00E+00,70,-4.36743,1
310.479,27.1031,-1.65239,77.29635,0.00E+00,70,-4.3964,1
310.979,27.1536,-1.6544,77.07007,0.00E+00,70,-4.42787,1
311.479,27.20408,-1.65846,76.85667,0.00E+00,70,-4.46253,1
311.979,27.25443,-1.66044,76.62342,0.00E+00,70,-4.50075,1
312.479,27.30469,-1.66401,76.40786,0.00E+00,70,-4.54253,1
312.979,27.35487,-1.66607,76.18699,0.00E+00,70,-4.5875,1
313.479,27.40497,-1.66796,75.95927,0.00E+00,70,-4.63479,1
313.979,27.45512,-1.67238,75.72384,0.00E+00,70,-4.6834,1
314.479,27.50542,-1.67339,75.485,0.00E+00,70,-4.73216,1
314.979,27.55579,-1.67566,75.24553,0.00E+00,70,-4.77975,1
315.479,27.60619,-1.67815,74.99314,0.00E+00,70,-4.82511,1
315.979,27.65659,-1.68208,74.74437,0.00E+00,70,-4.86757,1
316.479,27.70684,-1.68311,74.49293,0.00E+00,70,-4.90682,1
316.979,27.75702,-1.68503,74.25267,0.00E+00,70,-4.94311,1
317.479,27.80713,-1.68763,73.99996,0.00E+00,70,-4.97698,1
317.979,27.85726,-1.68951,73.75074,0.00E+00,70,-5.00921,1
318.479,27.90744,-1.69108,73.49971,0.00E+00,70,-5.04064,1
318.979,27.95767,-1.69194,73.24779,0.00E+00,70,-5.07207,1
319.479,28.00792,-1.69515,72.98766,0.00E+00,70,-5.10419,1
319.979,28.05821,-1.69614,72.726,0.00E+00,70,-5.13753,1
320.479,28.10846,-1.69785,72.47627,0.00E+00,70,-5.17234,1
320.979,28.15873,-1.70008,72.21972,0.00E+00,70,-5.20864,1
321.479,28.2091,-1.7011,71.95204,0.00E+00,70,-5.24622,1
321.979,28.25949,-1.70345,71.69956,0.00E+00,70,-5.28446,1
322.479,28.30987,-1.70434,71.42102,0.00E+00,70,-5.32264,1
322.979,28.36033,-1.70668,71.16264,0.00E+00,70,-5.3601,1
323.479,28.41073,-1.70824,70.88605,0.00E+00,70,-5.3962,1
323.979,28.46099,-1.70954,70.58872,0.00E+00,70,-5.43065,1
324.479,28.51126,-1.71146,70.32298,0.00E+00,70,-5.4637,1
324.979,28.56153,-1.71283,70.05484,0.00E+00,70,-5.49581,1
325.479,28.61174,-1.71474,69.7796,0.00E+00,70,-5.52769,1
325.979,28.66197,-1.71599,69.49667,0.00E+00,70,-5.56011,1
326.479,28.71223,-1.71752,69.21118,0.00E+00,70,-5.59368,1
326.979,28.76243,-1.71956,68.93528,0.00E+00,70,-5.62861,1
327.479,28.81262,-1.7202,68.66419,0.00E+00,70,-5.66484,1
327.979,28.86284,-1.72137,68.39057,0.00E+00,70,-5.702,1
328.479,28.91306,-1.72313,68.1056,0.00E+00,70,-5.73952,1
328.979,28.96328,-1.72527,67.79409,0.00E+00,70,-5.7769,1
329.479,29.01361,-1.72606,67.48851,0.00E+00,70,-5.81396,1
329.979,29.06393,-1.72676,67.19691,0.00E+00,70,-5.85067,1
330.479,29.11425,-1.72799,66.90519,0.00E+00,70,-5.88735,1
330.979,29.16459,-1.72906,66.61665,0.00E+00,70,-5.92447,1
331.479,29.21495,-1.73019,66.3251,0.00E+00,70,-5.96242,1
331.979,29.26526,-1.73077,66.02761,0.00E+00,70,-6.00128,1
332.479,29.31555,-1.73211,65.71845,0.00E+00,70,-6.04089,1
332.979,29.3658,-1.7325,65.41569,0.00E+00,70,-6.08067,1
333.479,29.41607,-1.73396,65.1065,0.00E+00,70,-6.11992,1
333.979,29.46635,-1.73401,64.79893,0.00E+00,70,-6.15782,1
334.479,29.51666,-1.73472,64.49072,0.00E+00,70,-6.19369,1
334.979,29.56701,-1.73621,64.16452,0.00E+00,70,-6.22714,1
335.479,29.61742,-1.73628,63.84749,0.00E+00,70,-6.25815,1
335.979,29.66777,-1.73605,63.53071,0.00E+00,70,-6.28702,1
336.479,29.71807,-1.73675,63.21062,0.00E+00,70,-6.31447,1
336.979,29.76831,-1.73634,62.89937,0.00E+00,70,-6.34136,1
337.479,29.8185,-1.73682,62.58383,0.00E+00,70,-6.36866,1
337.979,29.86864,-1.73677,62.26107,0.00E+00,70,-6.3972,1
338.479,29.91874,-1.73696,61.93748,0.00E+00,70,-6.42761,1
338.979,29.96885,-1.73611,61.61665,0.00E+00,70,-6.46028,1
339.479,30.019,-1.73686,61.30167,0.00E+00,70,-6.49529,1
339.979,30.06911,-1.73711,60.98496,0.00E+00,70,-6.53242,1
340.479,30.11924,-1.73611,60.65158,0.00E+00,70,-6.57138,1
340.979,30.16943,-1.73537,60.31198,0.00E+00,70,-6.61181,1
341.479,30.21963,-1.73453,59.97863,0.00E+00,70,-6.6533,1
341.979,30.26981,-1.73427,59.64247,0.00E+00,70,-6.69551,1
342.479,30.32002,-1.73384,59.30826,0.00E+00,70,-6.73825,1
342.979,30.37026,-1.73299,58.96741,0.00E+00,70,-6.78136,1
343.479,30.42051,-1.73196,58.63915,0.00E+00,70,-6.82465,1
343.979,30.47076,-1.73102,58.28746,0.00E+00,70,-6.86806,1
344.479,30.52103,-1.73028,57.94294,0.00E+00,70,-6.91161,1
344.979,30.57135,-1.72793,57.59183,0.00E+00,70,-6.9555,1
345.479,30.62162,-1.72611,57.23262,0.00E+00,70,-7.00001,1
345.979,30.67187,-1.72575,56.87947,0.00E+00,70,-7.04567,1
346.479,30.72209,-1.72442,56.52152,0.00E+00,70,-7.09308,1
346.979,30.77225,-1.72212,56.1753,0.00E+00,70,-7.1427,1
347.479,30.8223,-1.72085,55.82498,0.00E+00,70,-7.19481,1
347.979,30.87232,-1.71976,55.46865,0.00E+00,70,-7.24951,1
348.479,30.92234,-1.71815,55.10569,0.00E+00,70,-7.30659,1
348.979,30.9724,-1.71573,54.73846,0.00E+00,70,-7.36564,1
349.479,31.0226,-1.7139,54.36139,0.00E+00,70,-7.42621,1
349.979,31.07292,-1.71233,53.9849,0.00E+00,70,-7.48785,1
350.479,31.12333,-1.70945,53.60775,0.00E+00,70,-7.55021,1
350.979,31.17373,-1.70615,53.21756,0.00E+00,70,-7.61318,1
351.479,31.22407,-1.70413,52.82971,0.00E+00,70,-7.6768,1
351.979,31.27433,-1.70205,52.45048,0.00E+00,70,-7.74137,1
352.479,31.32456,-1.69853,52.07122,0.00E+00,70,-7.80721,1
352.979,31.3748,-1.69509,51.6854,0.00E+00,70,-7.87454,1
353.479,31.42508,-1.69287,51.27649,0.00E+00,70,-7.9435,1
353.979,31.47543,-1.68943,50.86275,0.00E+00,70,-8.01413,1
354.479,31.5258,-1.68552,50.46987,0.00E+00,70,-8.08624,1
354.979,31.57618,-1.68299,50.05404,0.00E+00,70,-8.15972,1
355.479,31.62654,-1.67988,49.65055,0.00E+00,70,-8.23438,1
355.979,31.67688,-1.67505,49.24113,0.00E+00,70,-8.3101,1
356.479,31.72725,-1.67161,48.80919,0.00E+00,70,-8.38675,1
356.979,31.77761,-1.66778,48.38454,0.00E+00,70,-8.46411,1
357.479,31.82796,-1.66436,47.96415,0.00E+00,70,-8.54188,1
357.979,31.87832,-1.66197,47.53108,0.00E+00,70,-8.6199,1
358.479,31.9287,-1.65881,47.08943,0.00E+00,70,-8.6979,1
358.979,31.979,-1.65553,46.65442,0.00E+00,70,-8.77552,1
359.479,32.02929,-1.65278,46.20929,0.00E+00,70,-8.85269,1
359.979,32.0796,-1.64889,45.75532,0.00E+00,70,-8.9292,1
360.479,32.1299,-1.64422,45.30889,0.00E+00,70,-9.00478,1
360.979,32.18018,-1.63958,44.85424,0.00E+00,70,-9.07905,1
361.479,32.23052,-1.6352,44.39812,0.00E+00,70,-9.15169,1
361.979,32.28091,-1.63193,43.94169,0.00E+00,70,-9.2221,1
362.479,32.33129,-1.62709,43.46132,0.00E+00,70,-9.28958,1
362.979,32.38168,-1.62195,42.98363,0.00E+00,70,-9.35347,1
363.479,32.43216,-1.61787,42.51689,0.00E+00,70,-9.41321,1
363.979,32.48266,-1.6134,42.03861,0.00E+00,70,-9.46809,1
364.479,32.5331,-1.60914,41.54926,0.00E+00,70,-9.51747,1
364.979,32.58355,-1.6054,41.06918,0.00E+00,70,-9.56093,1
365.479,32.63396,-1.60102,40.58277,0.00E+00,70,-9.598,1
365.979,32.68426,-1.59624,40.09964,0.00E+00,70,-9.62822,1
366.479,32.73448,-1.59255,39.60802,0.00E+00,70,-9.65123,1
366.979,32.78477,-1.58845,39.1127,0.00E+00,70,-9.66657,1
367.479,32.8351,-1.58425,38.62597,0.00E+00,70,-9.67358,1
367.979,32.88549,-1.58053,38.13032,0.00E+00,70,-9.67141,1
368.479,32.93594,-1.57731,37.64281,0.00E+00,70,-9.65904,1
368.979,32.98641,-1.57456,37.15909,0.00E+00,70,-9.63534,1
369.479,33.03678,-1.57201,36.66699,0.00E+00,70,-9.59923,1
369.979,33.08706,-1.56921,36.17166,0.00E+00,70,-9.54975,1
370.479,33.13718,-1.56582,35.6786,0.00E+00,70,-9.48633,1
370.979,33.18731,-1.56307,35.19503,0.00E+00,70,-9.40839,1
371.479,33.23745,-1.56186,34.71423,0.00E+00,70,-9.31595,1
371.979,33.28755,-1.561,34.24733,0.00E+00,70,-9.20933,1
372.479,33.33768,-1.55927,33.78203,0.00E+00,70,-9.08877,1
372.979,33.38791,-1.55864,33.32311,0.00E+00,70,-8.95444,1
373.479,33.43807,-1.55791,32.87741,0.00E+00,70,-8.80693,1
373.979,33.48823,-1.55753,32.43278,0.00E+00,70,-8.64604,1
374.479,33.53842,-1.55808,32.00731,0.00E+00,70,-8.47138,1
374.979,33.58858,-1.55768,31.56907,0.00E+00,70,-8.28291,1
375.479,33.63866,-1.55887,31.14224,0.00E+00,70,-8.08072,1
375.979,33.68869,-1.56,30.72937,0.00E+00,70,-7.86474,1
376.479,33.73863,-1.56246,30.33733,0.00E+00,70,-7.63558,1
376.979,33.78852,-1.564,29.96073,0.00E+00,70,-7.39367,1
377.479,33.83837,-1.56654,29.59601,0.00E+00,70,-7.13981,1
377.979,33.88824,-1.57138,29.24387,0.00E+00,70,-6.8744,1
378.479,33.9381,-1.57502,28.90142,0.00E+00,70,-6.59855,1
378.979,33.98798,-1.57873,28.56787,0.00E+00,70,-6.31279,1
379.479,34.03784,-1.58437,28.2626,0.00E+00,70,-6.01846,1
379.979,34.08771,-1.59097,27.96468,0.00E+00,70,-5.71647,1
380.479,34.13754,-1.59725,27.67801,0.00E+00,70,-5.40888,1
380.979,34.1874,-1.60391,27.41311,0.00E+00,70,-5.09752,1
381.479,34.23725,-1.61251,27.16865,0.00E+00,70,-4.78537,1
381.979,34.28716,-1.62084,26.92737,0.00E+00,70,-4.47543,1
382.479,34.337,-1.62971,26.71159,0.00E+00,70,-4.17202,1
382.979,34.38673,-1.63835,26.52103,0.00E+00,70,-3.87873,1
383.479,34.43634,-1.64769,26.35695,0.00E+00,70,-3.59855,1
383.979,34.48581,-1.65422,26.20382,0.00E+00,70,-3.33352,1
384.479,34.53515,-1.66161,26.06107,0.00E+00,70,-3.0846,1
384.979,34.58459,-1.65699,25.93112,0.00E+00,70,-2.85085,1
385.479,34.6343,-1.64575,25.79432,0.00E+00,70,-2.63111,1
385.979,34.68435,-1.65163,25.67089,0.00E+00,70,-2.42441,1
386.479,34.73484,-1.67196,25.55196,0.00E+00,70,-2.22968,1
386.979,34.78577,-1.69196,25.44344,0.00E+00,70,-2.04652,1
387.479,34.837,-1.72397,25.34649,0.00E+00,70,-1.87534,1
387.979,34.88843,-1.76036,25.27389,0.00E+00,70,-1.71682,1
388.479,34.94,-1.78825,25.19744,0.00E+00,70,-1.57172,1
388.979,34.99165,-1.81161,25.12029,0.00E+00,70,-1.44103,1
389.479,35.04334,-1.83326,25.05378,0.00E+00,70,-1.32549,1
389.979,35.09498,-1.85263,25.0068,0.00E+00,70,-1.22562,1
390.479,35.14655,-1.86969,24.9547,0.00E+00,70,-1.14133,1
390.979,35.19793,-1.89011,24.90894,0.00E+00,70,-1.07215,1
391.479,35.24914,-1.90677,24.85313,0.00E+00,70,-1.01684,1
391.979,35.3002,-1.92278,24.81629,0.00E+00,70,-0.97382,1
392.479,35.35116,-1.93683,24.76728,0.00E+00,70,-0.94121,1
392.979,35.40204,-1.94969,24.73687,0.00E+00,70,-0.917,1
393.479,35.45291,-1.95913,24.68469,0.00E+00,70,-0.89917,1
393.979,35.50366,-1.9705,24.63868,0.00E+00,70,-0.88588,1
394.479,35.55435,-1.97898,24.5934,0.00E+00,70,-0.8755,1
394.979,35.60494,-1.98709,24.54999,0.00E+00,70,-0.86682,1
395.479,35.65549,-1.99392,24.50464,0.00E+00,70,-0.85903,1
395.979,35.70599,-2.00163,24.45162,0.00E+00,70,-0.8517,1
396.479,35.75644,-2.00738,24.42326,0.00E+00,70,-0.84473,1
396.979,35.80684,-2.01331,24.37438,0.00E+00,70,-0.8382,1
397.479,35.8572,-2.01748,24.32744,0.00E+00,70,-0.83224,1
397.979,35.90745,-2.02246,24.30049,0.00E+00,70,-0.8269,1
398.479,35.95762,-2.02649,24.25619,0.00E+00,70,-0.82211,1
398.979,36.00784,-2.0315,24.20772,0.00E+00,70,-0.81763,1
399.479,36.05804,-2.03506,24.17846,0.00E+00,70,-0.81313,1
399.979,36.10824,-2.03815,24.13488,0.00E+00,70,-0.80829,1
400.479,36.1585,-2.04133,24.08922,0.00E+00,70,-0.80284,1
400.979,36.20879,-2.04365,24.04703,0.00E+00,70,-0.7967,1
401.479,36.25906,-2.04636,23.99441,0.00E+00,70,-0.78996,1
401.979,36.30942,-2.04814,23.96721,0.00E+00,70,-0.78289,1
402.479,36.35978,-2.05077,23.93104,0.00E+00,70,-0.77582,1
402.979,36.41014,-2.05219,23.88687,0.00E+00,70,-0.76907,1
403.479,36.46054,-2.05365,23.85547,0.00E+00,70,-0.76288,1
403.979,36.51093,-2.05532,23.81533,0.00E+00,70,-0.75729,1
404.479,36.56129,-2.05613,23.77855,0.00E+00,70,-0.75223,1
404.979,36.6117,-2.05821,23.74045,0.00E+00,70,-0.74748,1
405.479,36.66218,-2.06103,23.70739,0.00E+00,70,-0.74281,1
405.979,36.71263,-2.06306,23.66068,0.00E+00,70,-0.73808,1
406.479,36.76307,-2.06565,23.62175,0.00E+00,70,-0.73322,1
406.979,36.81352,-2.06644,23.58996,0.00E+00,70,-0.72829,1
407.479,36.86393,-2.0688,23.54922,0.00E+00,70,-0.72346,1
407.979,36.91425,-2.07089,23.51259,0.00E+00,70,-0.71892,1
408.479,36.96454,-2.07225,23.48377,0.00E+00,70,-0.71477,1
408.979,37.01481,-2.07551,23.44935,0.00E+00,70,-0.71103,1
409.479,37.065,-2.07825,23.41326,0.00E+00,70,-0.70754,1
409.979,37.11514,-2.08041,23.37333,0.00E+00,70,-0.70399,1
410.479,37.16528,-2.08299,23.34319,0.00E+00,70,-0.69998,1
410.979,37.21544,-2.08496,23.30585,0.00E+00,70,-0.69509,1
411.479,37.26557,-2.08697,23.26227,0.00E+00,70,-0.68898,1
411.979,37.31576,-2.08976,23.24057,0.00E+00,70,-0.68149,1
412.479,37.36598,-2.09116,23.1997,0.00E+00,70,-0.67273,1
412.979,37.41619,-2.09355,23.16172,0.00E+00,70,-0.66308,1
413.479,37.4664,-2.09628,23.11857,0.00E+00,70,-0.65318,1
413.979,37.51663,-2.09906,23.09248,0.00E+00,70,-0.64383,1
414.479,37.56682,-2.10169,23.06293,0.00E+00,70,-0.63583,1
414.979,37.61694,-2.1039,23.04012,0.00E+00,70,-0.6298,1
415.479,37.66705,-2.10542,23.0085,0.00E+00,70,-0.62608,1
415.979,37.71718,-2.10728,22.9802,0.00E+00,70,-0.6246,1
416.479,37.76727,-2.11006,22.95316,0.00E+00,70,-0.62495,1
416.979,37.81742,-2.11389,22.92366,0.00E+00,70,-0.62639,1
417.479,37.86767,-2.11513,22.88865,0.00E+00,70,-0.6281,1
417.979,37.91794,-2.1171,22.85578,0.00E+00,70,-0.62927,1
418.479,37.96818,-2.11765,22.81674,0.00E+00,70,-0.62933,1
418.979,38.01848,-2.1206,22.78247,0.00E+00,70,-0.62804,1
419.479,38.06875,-2.12364,22.75336,0.00E+00,70,-0.62551,1
419.979,38.11899,-2.12503,22.7185,0.00E+00,70,-0.62215,1
420.479,38.16925,-2.12663,22.68411,0.00E+00,70,-0.6185,1
420.979,38.21949,-2.12716,22.65975,0.00E+00,70,-0.6151,1
421.479,38.26974,-2.12897,22.63387,0.00E+00,70,-0.61234,1
421.979,38.32001,-2.13245,22.60594,0.00E+00,70,-0.61039,1
422.479,38.37025,-2.13343,22.57369,0.00E+00,70,-0.60921,1
422.979,38.42052,-2.13802,22.54512,0.00E+00,70,-0.60856,1
423.479,38.47081,-2.13939,22.51466,0.00E+00,70,-0.60818,1
423.979,38.52109,-2.14209,22.47571,0.00E+00,70,-0.60781,1
424.479,38.57136,-2.14412,22.43982,0.00E+00,70,-0.60734,1
424.979,38.6216,-2.14487,22.41894,0.00E+00,70,-0.60675,1
425.479,38.67186,-2.14733,22.38285,0.00E+00,70,-0.60616,1
425.979,38.72212,-2.14971,22.35852,0.00E+00,70,-0.6057,1
426.479,38.77235,-2.15304,22.32944,0.00E+00,70,-0.6055,1
426.979,38.82257,-2.15538,22.29927,0.00E+00,70,-0.60559,1
427.479,38.87284,-2.15699,22.2702,0.00E+00,70,-0.60595,1
427.979,38.92306,-2.16077,22.2331,0.00E+00,70,-0.60649,1
428.479,38.97325,-2.16361,22.20152,0.00E+00,70,-0.60705,1
428.979,39.0235,-2.16493,22.17606,0.00E+00,70,-0.60751,1
429.479,39.07374,-2.1685,22.14808,0.00E+00,70,-0.60775,1
429.979,39.1239,-2.17248,22.11273,0.00E+00,70,-0.60769,1
430.479,39.17405,-2.17473,22.08061,0.00E+00,70,-0.60729,1
430.979,39.22418,-2.17738,22.05675,0.00E+00,70,-0.60652,1
431.479,39.27426,-2.17926,22.01831,0.00E+00,70,-0.60536,1
431.979,39.32434,-2.18168,21.98704,0.00E+00,70,-0.60377,1
432.479,39.37451,-2.18208,21.96053,0.00E+00,70,-0.60169,1
432.979,39.42472,-2.18487,21.93649,0.00E+00,70,-0.59905,1
433.479,39.47495,-2.19043,21.9043,0.00E+00,70,-0.59584,1
433.979,39.52514,-2.19165,21.86771,0.00E+00,70,-0.59208,1
434.479,39.57528,-2.19417,21.8357,0.00E+00,70,-0.58789,1
434.979,39.6254,-2.19717,21.81056,0.00E+00,70,-0.58346,1
435.479,39.67551,-2.19978,21.7772,0.00E+00,70,-0.57905,1
435.979,39.72562,-2.20262,21.74718,0.00E+00,70,-0.57493,1
436.479,39.77583,-2.20502,21.7276,0.00E+00,70,-0.57132,1
436.979,39.82608,-2.20809,21.69813,0.00E+00,70,-0.56836,1
437.479,39.87632,-2.20957,21.66859,0.00E+00,70,-0.56607,1
437.979,39.92655,-2.2116,21.64579,0.00E+00,70,-0.56433,1
438.479,39.97676,-2.2146,21.61122,0.00E+00,70,-0.56299,1
438.979,40.02695,-2.21816,21.58242,0.00E+00,70,-0.56184,1
439.479,40.0772,-2.22099,21.55597,0.00E+00,70,-0.56071,1
439.979,40.12747,-2.22282,21.5269,0.00E+00,70,-0.55945,1
440.479,40.17776,-2.22595,21.49542,0.00E+00,70,-0.55797,1
440.979,40.22814,-2.22871,21.46646,0.00E+00,70,-0.55616,1
441.479,40.27852,-2.23153,21.44626,0.00E+00,70,-0.55393,1
441.979,40.32885,-2.23571,21.4182,0.00E+00,70,-0.55115,1
442.479,40.37919,-2.23883,21.39267,0.00E+00,70,-0.5477,1
442.979,40.42952,-2.24253,21.35679,0.00E+00,70,-0.54349,1
443.479,40.47979,-2.24649,21.32561,0.00E+00,70,-0.53852,1
443.979,40.53007,-2.24941,21.30294,0.00E+00,70,-0.53287,1
444.479,40.58033,-2.25303,21.27203,0.00E+00,70,-0.52672,1
444.979,40.63057,-2.25717,21.24671,0.00E+00,70,-0.52029,1
445.479,40.68081,-2.2603,21.22728,0.00E+00,70,-0.51384,1
445.979,40.73106,-2.26441,21.20102,0.00E+00,70,-0.50757,1
446.479,40.78128,-2.26905,21.17285,0.00E+00,70,-0.50165,1
446.979,40.83151,-2.27339,21.15033,0.00E+00,70,-0.4962,1
447.479,40.88177,-2.27706,21.12344,0.00E+00,70,-0.49126,1
447.979,40.93203,-2.28071,21.09853,0.00E+00,70,-0.4869,1
448.479,40.98229,-2.28482,21.08062,0.00E+00,70,-0.48317,1
448.979,41.03261,-2.2897,21.04537,0.00E+00,70,-0.48011,1
449.479,41.08291,-2.29468,21.02495,0.00E+00,70,-0.47776,1
449.979,41.1332,-2.2983,21.00742,0.00E+00,70,-0.47611,1
450.479,41.1835,-2.3037,20.98546,0.00E+00,70,-0.47509,1
450.979,41.23381,-2.30835,20.95954,0.00E+00,70,-0.47456,1
451.479,41.28407,-2.31274,20.93615,0.00E+00,70,-0.47433,1
451.979,41.33437,-2.31841,20.90803,0.00E+00,70,-0.47418,1
452.479,41.38472,-2.32436,20.88354,0.00E+00,70,-0.4739,1
452.979,41.43513,-2.33145,20.86389,0.00E+00,70,-0.47332,1
453.479,41.48555,-2.33725,20.83713,0.00E+00,70,-0.47233,1
453.979,41.53604,-2.34192,20.81435,0.00E+00,70,-0.47092,1
454.479,41.58655,-2.34822,20.79114,0.00E+00,70,-0.46914,1
454.979,41.63702,-2.35354,20.76902,0.00E+00,70,-0.4671,1
455.479,41.68737,-2.35758,20.73323,0.00E+00,70,-0.46494,1
455.979,41.73769,-2.3618,20.71569,0.00E+00,70,-0.46278,1
456.479,41.78795,-2.36741,20.69874,0.00E+00,70,-0.46068,1
456.979,41.83814,-2.37328,20.67762,0.00E+00,70,-0.45868,1
457.479,41.88831,-2.37847,20.6525,0.00E+00,70,-0.45675,1
457.979,41.93857,-2.38443,20.62841,0.00E+00,70,-0.45485,1
458.479,41.98886,-2.39062,20.6093,0.00E+00,70,-0.45296,1
458.979,42.03916,-2.39571,20.57285,0.00E+00,70,-0.4511,1
459.479,42.08949,-2.40236,20.55336,0.00E+00,70,-0.44928,1
459.979,42.13986,-2.40899,20.53689,0.00E+00,70,-0.44756,1
460.479,42.19024,-2.41638,20.51487,0.00E+00,70,-0.44596,1
460.979,42.24056,-2.42391,20.49913,0.00E+00,70,-0.4444,1
461.479,42.29088,-2.43017,20.47118,0.00E+00,70,-0.44277,1
461.979,42.34119,-2.43683,20.44533,0.00E+00,70,-0.44085,1
462.479,42.3915,-2.44261,20.42744,0.00E+00,70,-0.43842,1
462.979,42.44177,-2.44992,20.39826,0.00E+00,70,-0.43527,1
463.479,42.49208,-2.45575,20.37855,0.00E+00,70,-0.43126,1
463.979,42.54247,-2.46191,20.36255,0.00E+00,70,-0.42636,1
464.479,42.59285,-2.46694,20.33446,0.00E+00,70,-0.42065,1
464.979,42.64321,-2.47318,20.31234,0.00E+00,70,-0.41435,1
465.479,42.69358,-2.47977,20.28993,0.00E+00,70,-0.40776,1
465.979,42.744,-2.48523,20.272,0.00E+00,70,-0.40125,1
466.479,42.79437,-2.49035,20.25335,0.00E+00,70,-0.39524,1
466.979,42.8448,-2.49724,20.23702,0.00E+00,70,-0.39008,1
467.479,42.89532,-2.50454,20.21651,0.00E+00,70,-0.38611,1
467.979,42.94591,-2.51143,20.19117,0.00E+00,70,-0.38354,1
468.479,42.99649,-2.51811,20.17547,0.00E+00,70,-0.38245,1
468.979,43.04712,-2.52322,20.16286,0.00E+00,70,-0.38273,1
469.479,43.09778,-2.52928,20.14949,0.00E+00,70,-0.38409,1
469.979,43.1484,-2.53561,20.12337,0.00E+00,70,-0.38611,1
470.479,43.19904,-2.5409,20.10315,0.00E+00,70,-0.38828,1
470.979,43.24974,-2.54653,20.08183,0.00E+00,70,-0.39006,1
471.479,43.30039,-2.55436,20.06301,0.00E+00,70,-0.39103,1
471.979,43.351,-2.55905,20.04294,0.00E+00,70,-0.39091,1
472.479,43.40166,-2.56606,20.02153,0.00E+00,70,-0.38962,1
472.979,43.45225,-2.57237,19.99642,0.00E+00,70,-0.38728,1
473.479,43.50277,-2.57984,19.97421,0.00E+00,70,-0.38415,1
473.979,43.55332,-2.58647,19.95817,0.00E+00,70,-0.38056,1
474.479,43.60383,-2.59332,19.94317,0.00E+00,70,-0.37681,1
474.979,43.65428,-2.60079,19.92652,0.00E+00,70,-0.37308,1
475.479,43.70476,-2.60721,19.90529,0.00E+00,70,-0.36945,1
475.979,43.75522,-2.61514,19.88811,0.00E+00,70,-0.36583,1
476.479,43.80564,-2.62296,19.87032,0.00E+00,70,-0.36208,1
476.979,43.85605,-2.62998,19.85207,0.00E+00,70,-0.35807,1
477.479,43.90637,-2.63736,19.83306,0.00E+00,70,-0.35373,1
477.979,43.95654,-2.64452,19.80427,0.00E+00,70,-0.34911,1
478.479,44.00664,-2.65093,19.79273,0.00E+00,70,-0.34436,1
478.979,44.05664,-2.65788,19.77649,0.00E+00,70,-0.33969,1
479.479,44.10659,-2.66337,19.76417,0.00E+00,70,-0.33535,1
479.979,44.15657,-2.67014,19.74765,0.00E+00,70,-0.33153,1
480.479,44.20656,-2.6763,19.73197,0.00E+00,70,-0.32837,1
480.979,44.2566,-2.68288,19.71639,0.00E+00,70,-0.32586,1
481.479,44.3067,-2.68941,19.69545,0.00E+00,70,-0.32397,1
481.979,44.35673,-2.69352,19.68134,0.00E+00,70,-0.32255,1
482.479,44.40675,-2.69984,19.66726,0.00E+00,70,-0.32145,1
482.979,44.45682,-2.70677,19.6497,0.00E+00,70,-0.32052,1
483.479,44.50679,-2.71093,19.63415,0.00E+00,70,-0.31967,1
483.979,44.55673,-2.71593,19.62197,0.00E+00,70,-0.31883,1
484.479,44.6067,-2.72142,19.6042,0.00E+00,70,-0.31798,1
484.979,44.65669,-2.72589,19.579,0.00E+00,70,-0.31716,1
485.479,44.70659,-2.73053,19.56779,0.00E+00,70,-0.31638,1
485.979,44.75655,-2.7349,19.5548,0.00E+00,70,-0.31566,1
486.479,44.80649,-2.73911,19.54021,0.00E+00,70,-0.31492,1
486.979,44.85646,-2.74367,19.52768,0.00E+00,70,-0.31403,1
487.479,44.90638,-2.74716,19.51123,0.00E+00,70,-0.31283,1
487.979,44.95635,-2.75138,19.49201,0.00E+00,70,-0.31112,1
488.479,45.00635,-2.75605,19.47211,0.00E+00,70,-0.30874,1
488.979,45.05631,-2.75818,19.46216,0.00E+00,70,-0.30566,1
489.479,45.10624,-2.76264,19.44275,0.00E+00,70,-0.30195,1
489.979,45.15619,-2.7645,19.42482,0.00E+00,70,-0.29783,1
490.479,45.20614,-2.76968,19.41162,0.00E+00,70,-0.29363,1
490.979,45.25604,-2.77165,19.39917,0.00E+00,70,-0.28974,1
491.479,45.30601,-2.77484,19.38542,0.00E+00,70,-0.28652,1
491.979,45.35596,-2.77816,19.37033,0.00E+00,70,-0.28424,1
492.479,45.40597,-2.78079,19.35795,0.00E+00,70,-0.28308,1
492.979,45.45605,-2.78334,19.35381,0.00E+00,70,-0.28307,1
493.479,45.50619,-2.78546,19.33447,0.00E+00,70,-0.28414,1
493.979,45.55632,-2.78882,19.31227,0.00E+00,70,-0.28615,1
494.479,45.60655,-2.79033,19.30424,0.00E+00,70,-0.28898,1
494.979,45.65674,-2.79219,19.29102,0.00E+00,70,-0.29259,1
495.479,45.70687,-2.79517,19.27621,0.00E+00,70,-0.29704,1
495.979,45.75697,-2.7964,19.26087,0.00E+00,70,-0.30252,1
496.479,45.80709,-2.79932,19.24223,0.00E+00,70,-0.30932,1
496.979,45.85715,-2.80191,19.2265,0.00E+00,70,-0.31779,1
497.479,45.90719,-2.8037,19.21349,0.00E+00,70,-0.32819,1
497.979,45.95723,-2.80602,19.20159,0.00E+00,70,-0.34064,1
498.479,46.00728,-2.80812,19.18452,0.00E+00,70,-0.355,1
498.979,46.05735,-2.80893,19.17371,0.00E+00,70,-0.37075,1
499.479,46.10749,-2.80923,19.15755,0.00E+00,70,-0.38706,1
499.979,46.15766,-2.81299,19.13088,0.00E+00,70,-0.40276,1
500.479,46.20786,-2.81513,19.10335,0.00E+00,70,-0.41648,1
500.979,46.25807,-2.81632,19.09271,0.00E+00,70,-0.42689,1
501.479,46.30825,-2.81691,19.06898,0.00E+00,70,-0.43287,1
501.979,46.35838,-2.81937,19.03619,0.00E+00,70,-0.43373,1
502.479,46.40851,-2.8208,19.00395,0.00E+00,70,-0.42933,1
502.979,46.45859,-2.8218,18.97213,0.00E+00,70,-0.42011,1
503.479,46.50865,-2.82263,18.94808,0.00E+00,70,-0.407,1
503.979,46.5587,-2.8237,18.93418,0.00E+00,70,-0.39124,1
504.479,46.60874,-2.82511,18.92025,0.00E+00,70,-0.37423,1
504.979,46.65875,-2.82531,18.90543,0.00E+00,70,-0.35725,1
505.479,46.70878,-2.82526,18.89215,0.00E+00,70,-0.34133,1
505.979,46.75883,-2.82541,18.87757,0.00E+00,70,-0.3272,1
506.479,46.80889,-2.82553,18.85537,0.00E+00,70,-0.31522,1
506.979,46.85903,-2.82575,18.83654,0.00E+00,70,-0.30542,1
507.479,46.90924,-2.82504,18.82964,0.00E+00,70,-0.29763,1
507.979,46.95951,-2.8257,18.81762,0.00E+00,70,-0.29147,1
508.479,47.00978,-2.82446,18.80534,0.00E+00,70,-0.28647,1
508.979,47.06008,-2.82438,18.79241,0.00E+00,70,-0.28211,1
509.479,47.11033,-2.82346,18.77529,0.00E+00,70,-0.27787,1
509.979,47.16052,-2.82281,18.75731,0.00E+00,70,-0.27333,1
510.479,47.21065,-2.82243,18.74002,0.00E+00,70,-0.26817,1
510.979,47.26076,-2.82245,18.72499,0.00E+00,70,-0.26224,1
511.479,47.31089,-2.82136,18.72456,0.00E+00,70,-0.25553,1
511.979,47.36107,-2.82107,18.70573,0.00E+00,70,-0.24821,1
512.479,47.41125,-2.82088,18.68608,0.00E+00,70,-0.2406,1
512.979,47.46148,-2.82139,18.67964,0.00E+00,70,-0.23313,1
513.479,47.51173,-2.82288,18.66646,0.00E+00,70,-0.22632,1
513.979,47.56196,-2.82118,18.65345,0.00E+00,70,-0.22068,1
514.479,47.61208,-2.82052,18.64923,0.00E+00,70,-0.21673,1
514.979,47.66226,-2.82099,18.64022,0.00E+00,70,-0.21486,1
515.479,47.71242,-2.82046,18.6299,0.00E+00,70,-0.21538,1
515.979,47.76254,-2.82086,18.6217,0.00E+00,70,-0.21843,1
516.479,47.81265,-2.82053,18.60913,0.00E+00,70,-0.224,1
516.979,47.86285,-2.82095,18.60001,0.00E+00,70,-0.23184,1
517.479,47.91299,-2.82082,18.59072,0.00E+00,70,-0.24145,1
517.979,47.96313,-2.82055,18.57953,0.00E+00,70,-0.25212,1
518.479,48.01326,-2.82037,18.56996,0.00E+00,70,-0.26293,1
518.979,48.0634,-2.82056,18.55674,0.00E+00,70,-0.27289,1
519.479,48.11352,-2.82081,18.53797,0.00E+00,70,-0.28101,1
519.979,48.16363,-2.82077,18.52244,0.00E+00,70,-0.28652,1
520.479,48.21375,-2.82054,18.50801,0.00E+00,70,-0.28898,1
520.979,48.26389,-2.8196,18.4861,0.00E+00,70,-0.28842,1
521.479,48.31397,-2.82096,18.45765,0.00E+00,70,-0.28533,1
521.979,48.364,-2.82058,18.44265,0.00E+00,70,-0.28059,1
522.479,48.41403,-2.82169,18.43174,0.00E+00,70,-0.27533,1
522.979,48.464,-2.82205,18.43072,0.00E+00,70,-0.27067,1
523.479,48.51395,-2.82216,18.4201,0.00E+00,70,-0.26754,1
523.979,48.56392,-2.82284,18.41028,0.00E+00,70,-0.26648,1
524.479,48.61392,-2.82299,18.39525,0.00E+00,70,-0.26761,1
524.979,48.66393,-2.82385,18.38341,0.00E+00,70,-0.27062,1
525.479,48.714,-2.82387,18.37051,0.00E+00,70,-0.27488,1
525.979,48.76413,-2.82565,18.35703,0.00E+00,70,-0.27957,1
526.479,48.81435,-2.8258,18.34227,0.00E+00,70,-0.2839,1
526.979,48.86461,-2.82578,18.32515,0.00E+00,70,-0.28719,1
527.479,48.91486,-2.82632,18.3103,0.00E+00,70,-0.28904,1
527.979,48.9651,-2.82824,18.28827,0.00E+00,70,-0.28933,1
528.479,49.01526,-2.82955,18.26799,0.00E+00,70,-0.28819,1
528.979,49.06532,-2.82932,18.26115,0.00E+00,70,-0.28597,1
529.479,49.1153,-2.83081,18.24769,0.00E+00,70,-0.28308,1
529.979,49.16526,-2.83246,18.23572,0.00E+00,70,-0.27989,1
530.479,49.21515,-2.8326,18.22278,0.00E+00,70,-0.27675,1
530.979,49.26504,-2.83456,18.20713,0.00E+00,70,-0.27385,1
531.479,49.31493,-2.83562,18.19465,0.00E+00,70,-0.27132,1
531.979,49.36483,-2.83847,18.18143,0.00E+00,70,-0.26924,1
532.479,49.41474,-2.83846,18.16268,0.00E+00,70,-0.26766,1
532.979,49.46474,-2.83897,18.15453,0.00E+00,70,-0.26665,1
533.479,49.51477,-2.83928,18.14176,0.00E+00,70,-0.26628,1
533.979,49.56487,-2.84001,18.12784,0.00E+00,70,-0.26661,1
534.479,49.615,-2.83938,18.11161,0.00E+00,70,-0.26765,1
534.979,49.66513,-2.83898,18.101,0.00E+00,70,-0.2693,1
535.479,49.71522,-2.83992,18.09059,0.00E+00,70,-0.27134,1
535.979,49.76532,-2.84168,18.08369,0.00E+00,70,-0.27343,1
536.479,49.81536,-2.84167,18.06738,0.00E+00,70,-0.27518,1
536.979,49.8654,-2.84164,18.04223,0.00E+00,70,-0.2762,1
537.479,49.91549,-2.84311,18.02943,0.00E+00,70,-0.27618,1
537.979,49.96567,-2.84356,18.019,0.00E+00,70,-0.27497,1
538.479,50.01584,-2.84375,18.00365,0.00E+00,70,-0.27263,1
538.979,50.06609,-2.84383,17.98661,0.00E+00,70,-0.26942,1
539.479,50.11631,-2.84358,17.97236,0.00E+00,70,-0.26575,1
539.979,50.16647,-2.84506,17.95891,0.00E+00,70,-0.26215,1
540.479,50.21649,-2.84573,17.94748,0.00E+00,70,-0.25917,1
540.979,50.2665,-2.84599,17.93743,0.00E+00,70,-0.25724,1
541.479,50.31648,-2.84742,17.92609,0.00E+00,70,-0.25666,1
541.979,50.36648,-2.84893,17.915,0.00E+00,70,-0.25753,1
542.479,50.4165,-2.84911,17.90384,0.00E+00,70,-0.25977,1
542.979,50.46665,-2.85026,17.89268,0.00E+00,70,-0.26315,1
543.479,50.51678,-2.84989,17.88131,0.00E+00,70,-0.26732,1
543.979,50.56689,-2.84914,17.86213,0.00E+00,70,-0.27191,1
544.479,50.617,-2.85157,17.84288,0.00E+00,70,-0.27662,1
544.979,50.66713,-2.85153,17.83683,0.00E+00,70,-0.28117,1
545.479,50.71722,-2.85219,17.82206,0.00E+00,70,-0.28539,1
545.979,50.76733,-2.85303,17.80425,0.00E+00,70,-0.28918,1
546.479,50.81745,-2.85334,17.78924,0.00E+00,70,-0.29245,1
546.979,50.8675,-2.85318,17.77405,0.00E+00,70,-0.29514,1
547.479,50.91749,-2.85474,17.7651,0.00E+00,70,-0.29722,1
547.979,50.96749,-2.85543,17.75017,0.00E+00,70,-0.29863,1
548.479,51.0175,-2.85699,17.72763,0.00E+00,70,-0.29938,1
548.979,51.06754,-2.85737,17.71262,0.00E+00,70,-0.2995,1
549.479,51.11766,-2.85794,17.69653,0.00E+00,70,-0.29906,1
549.979,51.16786,-2.85809,17.68206,0.00E+00,70,-0.29816,1
550.479,51.21804,-2.85841,17.66923,0.00E+00,70,-0.29693,1
550.979,51.26819,-2.85841,17.65543,0.00E+00,70,-0.29547,1
551.479,51.31827,-2.85842,17.63991,0.00E+00,70,-0.29387,1
551.979,51.36829,-2.85989,17.62893,0.00E+00,70,-0.29222,1
552.479,51.41826,-2.86148,17.61262,0.00E+00,70,-0.29065,1
552.979,51.46825,-2.86185,17.59113,0.00E+00,70,-0.2893,1
553.479,51.5182,-2.86255,17.57726,0.00E+00,70,-0.28836,1
553.979,51.56824,-2.86347,17.56501,0.00E+00,70,-0.28806,1
554.479,51.61831,-2.86436,17.5526,0.00E+00,70,-0.28856,1
554.979,51.6684,-2.86531,17.5401,0.00E+00,70,-0.28996,1
555.479,51.7185,-2.86666,17.52817,0.00E+00,70,-0.29221,1
555.979,51.76866,-2.86753,17.51679,0.00E+00,70,-0.29511,1
556.479,51.81878,-2.86779,17.5005,0.00E+00,70,-0.2983,1
556.979,51.86889,-2.86805,17.48075,0.00E+00,70,-0.30135,1
557.479,51.919,-2.86884,17.46465,0.00E+00,70,-0.3038,1
557.979,51.96906,-2.86963,17.45007,0.00E+00,70,-0.30525,1
558.479,52.01909,-2.86997,17.43459,0.00E+00,70,-0.30539,1
558.979,52.06917,-2.87102,17.41889,0.00E+00,70,-0.30409,1
559.479,52.11923,-2.87156,17.40361,0.00E+00,70,-0.30132,1
559.979,52.16925,-2.87158,17.38138,0.00E+00,70,-0.29719,1
560.479,52.21932,-2.87113,17.36353,0.00E+00,70,-0.29186,1
560.979,52.26941,-2.87264,17.35689,0.00E+00,70,-0.28551,1
561.479,52.31949,-2.87246,17.34341,0.00E+00,70,-0.27828,1
561.979,52.36965,-2.87252,17.32857,0.00E+00,70,-0.27025,1
562.479,52.41986,-2.87407,17.31606,0.00E+00,70,-0.26145,1
562.979,52.47007,-2.87458,17.30142,0.00E+00,70,-0.25196,1
563.479,52.52029,-2.87444,17.28528,0.00E+00,70,-0.24188,1
563.979,52.57049,-2.87492,17.27397,0.00E+00,70,-0.23148,1
564.479,52.62063,-2.87541,17.26295,0.00E+00,70,-0.22118,1
564.979,52.67074,-2.87613,17.25085,0.00E+00,70,-0.21152,1
565.479,52.72082,-2.87546,17.23695,0.00E+00,70,-0.20314,1
565.979,52.77086,-2.87614,17.23044,0.00E+00,70,-0.19669,1
566.479,52.82088,-2.87814,17.22528,0.00E+00,70,-0.19267,1
566.979,52.87087,-2.8775,17.22027,0.00E+00,70,-0.19147,1
567.479,52.92087,-2.87775,17.2202,0.00E+00,70,-0.19326,1
567.979,52.9709,-2.87847,17.2109,0.00E+00,70,-0.19801,1
568.479,53.02088,-2.87957,17.19238,0.00E+00,70,-0.20554,1
568.979,53.07089,-2.87934,17.17716,0.00E+00,70,-0.21551,1
569.479,53.12093,-2.88101,17.17399,0.00E+00,70,-0.22745,1
569.979,53.17098,-2.88251,17.16531,0.00E+00,70,-0.24069,1
570.479,53.22098,-2.88282,17.15311,0.00E+00,70,-0.25439,1
570.979,53.27103,-2.88284,17.1416,0.00E+00,70,-0.26756,1
571.479,53.3211,-2.88527,17.1323,0.00E+00,70,-0.27905,1
571.979,53.37112,-2.88565,17.12064,0.00E+00,70,-0.28772,1
572.479,53.42111,-2.88543,17.10325,0.00E+00,70,-0.29261,1
572.979,53.47116,-2.88883,17.06849,0.00E+00,70,-0.29311,1
573.479,53.5212,-2.88901,17.02722,0.00E+00,70,-0.28906,1
573.979,53.57118,-2.88762,17.02562,0.00E+00,70,-0.28084,1
574.479,53.62114,-2.88891,17.04217,0.00E+00,70,-0.26934,1
574.979,53.67111,-2.89066,17.01932,0.00E+00,70,-0.25583,1
575.479,53.72102,-2.8916,16.98236,0.00E+00,70,-0.24181,1
575.979,53.7709,-2.89145,16.96962,0.00E+00,70,-0.22873,1
576.479,53.82086,-2.88986,16.96664,0.00E+00,70,-0.21782,1
576.979,53.87092,-2.89063,16.96844,0.00E+00,70,-0.20996,1
577.479,53.921,-2.89109,16.97183,0.00E+00,70,-0.20556,1
577.979,53.97114,-2.88961,16.96469,0.00E+00,70,-0.20455,1
578.479,54.02135,-2.89141,16.9533,0.00E+00,70,-0.20643,1
578.979,54.07156,-2.89083,16.93656,0.00E+00,70,-0.2105,1
579.479,54.12173,-2.89048,16.91794,0.00E+00,70,-0.21598,1
579.979,54.17188,-2.89123,16.90774,0.00E+00,70,-0.22218,1
580.479,54.22196,-2.89081,16.89781,0.00E+00,70,-0.22857,1
580.979,54.27197,-2.89164,16.88776,0.00E+00,70,-0.23479,1
581.479,54.32197,-2.89177,16.87853,0.00E+00,70,-0.24064,1
581.979,54.37199,-2.89245,16.86924,0.00E+00,70,-0.24595,1
582.479,54.42204,-2.89255,16.8563,0.00E+00,70,-0.25064,1
582.979,54.47215,-2.89211,16.84055,0.00E+00,70,-0.25464,1
583.479,54.5223,-2.89413,16.82451,0.00E+00,70,-0.25797,1
583.979,54.57243,-2.89513,16.81133,0.00E+00,70,-0.26079,1
584.479,54.6225,-2.89489,16.79325,0.00E+00,70,-0.26333,1
584.979,54.67254,-2.89456,16.77736,0.00E+00,70,-0.26598,1
585.479,54.72256,-2.89504,16.7717,0.00E+00,70,-0.26908,1
585.979,54.77252,-2.89714,16.76316,0.00E+00,70,-0.27292,1
586.479,54.82243,-2.89732,16.75112,0.00E+00,70,-0.27758,1
586.979,54.87236,-2.8983,16.73505,0.00E+00,70,-0.28294,1
587.479,54.92229,-2.89703,16.71999,0.00E+00,70,-0.28864,1
587.979,54.97224,-2.89622,16.70688,0.00E+00,70,-0.29417,1
588.479,55.02221,-2.89703,16.69223,0.00E+00,70,-0.29899,1
588.979,55.07221,-2.89732,16.67886,0.00E+00,70,-0.30258,1
589.479,55.12223,-2.89716,16.65686,0.00E+00,70,-0.30462,1
589.979,55.17221,-2.89803,16.63278,0.00E+00,70,-0.30502,1
590.479,55.22212,-2.89925,16.62016,0.00E+00,70,-0.30393,1
590.979,55.27204,-2.89873,16.6069,0.00E+00,70,-0.30174,1
591.479,55.32197,-2.90006,16.59402,0.00E+00,70,-0.29896,1
591.979,55.37189,-2.90095,16.58093,0.00E+00,70,-0.29618,1
592.479,55.42181,-2.90121,16.56075,0.00E+00,70,-0.29391,1
592.979,55.47177,-2.90255,16.54366,0.00E+00,70,-0.29255,1
593.479,55.52168,-2.90198,16.53956,0.00E+00,70,-0.29232,1
593.979,55.57159,-2.9035,16.52903,0.00E+00,70,-0.2933,1
594.479,55.62149,-2.90396,16.51414,0.00E+00,70,-0.2954,1
594.979,55.6714,-2.9029,16.49695,0.00E+00,70,-0.29843,1
595.479,55.72138,-2.90387,16.478,0.00E+00,70,-0.30208,1
595.979,55.77139,-2.90398,16.46027,0.00E+00,70,-0.30586,1
596.479,55.82134,-2.90402,16.44551,0.00E+00,70,-0.30911,1
596.979,55.8713,-2.9031,16.43195,0.00E+00,70,-0.31093,1
597.479,55.9213,-2.90294,16.41903,0.00E+00,70,-0.31026,1
597.979,55.97125,-2.90325,16.40947,0.00E+00,70,-0.30603,1
598.479,56.02122,-2.90225,16.40304,0.00E+00,70,-0.29739,1
598.979,56.07129,-2.90281,16.38434,0.00E+00,70,-0.28397,1
599.479,56.12143,-2.90294,16.33211,0.00E+00,70,-0.26622,1
599.979,56.17157,-2.90242,16.2888,0.00E+00,70,-0.24546,1
600.479,56.22174,-2.90062,16.29362,0.00E+00,70,-0.22374,1
600.979,56.27191,-2.90016,16.30045,0.00E+00,70,-0.20352,1
601.479,56.32204,-2.8999,16.30195,0.00E+00,70,-0.18721,1
601.979,56.37209,-2.90059,16.30706,0.00E+00,70,-0.17665,1
602.479,56.42205,-2.90088,16.30437,0.00E+00,70,-0.17279,1
602.979,56.47195,-2.89979,16.30041,0.00E+00,70,-0.17557,1
603.479,56.52187,-2.89988,16.29411,0.00E+00,70,-0.18406,1
603.979,56.57182,-2.90015,16.28288,0.00E+00,70,-0.19675,1
604.479,56.62183,-2.8974,16.27001,0.00E+00,70,-0.21189,1
604.979,56.67192,-2.89722,16.25771,0.00E+00,70,-0.22783,1
605.479,56.72207,-2.89941,16.23908,0.00E+00,70,-0.24322,1
605.979,56.77221,-2.89852,16.22329,0.00E+00,70,-0.25721,1
606.479,56.82229,-2.89758,16.21123,0.00E+00,70,-0.2695,1
606.979,56.87234,-2.89917,16.19935,0.00E+00,70,-0.2802,1
607.479,56.92236,-2.89811,16.18464,0.00E+00,70,-0.28974,1
607.979,56.97238,-2.89795,16.17062,0.00E+00,70,-0.2986,1
608.479,57.02239,-2.89962,16.15178,0.00E+00,70,-0.30716,1
608.979,57.0724,-2.89878,16.13221,0.00E+00,70,-0.31547,1
609.479,57.1224,-2.89912,16.12101,0.00E+00,70,-0.32314,1
609.979,57.17237,-2.89877,16.10896,0.00E+00,70,-0.32931,1
610.479,57.22229,-2.89892,16.09791,0.00E+00,70,-0.33276,1
610.979,57.27217,-2.90002,16.08692,0.00E+00,70,-0.33218,1
611.479,57.32208,-2.89892,16.07848,0.00E+00,70,-0.32651,1
611.979,57.37206,-2.89869,16.04253,0.00E+00,70,-0.31529,1
612.479,57.42205,-2.90053,15.97875,0.00E+00,70,-0.29893,1
612.979,57.47209,-2.90097,15.94738,0.00E+00,70,-0.27879,1
613.479,57.52217,-2.90067,15.95899,0.00E+00,70,-0.25697,1
613.979,57.57222,-2.8997,15.97494,0.00E+00,70,-0.23595,1
614.479,57.62225,-2.89995,15.96657,0.00E+00,70,-0.21803,1
614.979,57.67225,-2.89955,15.95731,0.00E+00,70,-0.2049,1
615.479,57.72222,-2.89807,15.9519,0.00E+00,70,-0.19736,1
615.979,57.77219,-2.89765,15.94793,0.00E+00,70,-0.19523,1
616.479,57.82217,-2.89785,15.94281,0.00E+00,70,-0.19753,1
616.979,57.87215,-2.89795,15.93384,0.00E+00,70,-0.20279,1
617.479,57.92218,-2.89838,15.9208,0.00E+00,70,-0.20936,1
617.979,57.97224,-2.89848,15.90474,0.00E+00,70,-0.21576,1
618.479,58.02233,-2.89797,15.88349,0.00E+00,70,-0.22091,1
618.979,58.07242,-2.8974,15.87109,0.00E+00,70,-0.22424,1
619.479,58.12248,-2.89787,15.86391,0.00E+00,70,-0.22566,1
619.979,58.17249,-2.89764,15.85202,0.00E+00,70,-0.22544,1
620.479,58.22249,-2.89756,15.84057,0.00E+00,70,-0.22405,1
620.979,58.27246,-2.89764,15.82809,0.00E+00,70,-0.22202,1
621.479,58.3224,-2.89869,15.8192,0.00E+00,70,-0.2198,1
621.979,58.37238,-2.8994,15.8102,0.00E+00,70,-0.2177,1
622.479,58.42235,-2.89825,15.79986,0.00E+00,70,-0.21592,1
622.979,58.47229,-2.89604,15.79062,0.00E+00,70,-0.21455,1
623.479,58.52225,-2.89313,15.77863,0.00E+00,70,-0.21365,1
623.979,58.57224,-2.89434,15.76604,0.00E+00,70,-0.21333,1
624.479,58.62222,-2.89511,15.75444,0.00E+00,70,-0.21378,1
624.979,58.67222,-2.89384,15.74245,0.00E+00,70,-0.21527,1
625.479,58.72226,-2.89316,15.73199,0.00E+00,70,-0.21812,1
625.979,58.77228,-2.89405,15.72534,0.00E+00,70,-0.22252,1
626.479,58.82227,-2.89317,15.71672,0.00E+00,70,-0.22844,1
626.979,58.87224,-2.89212,15.70648,0.00E+00,70,-0.23549,1
627.479,58.9222,-2.89347,15.6972,0.00E+00,70,-0.24287,1
627.979,58.97209,-2.89282,15.68846,0.00E+00,70,-0.24935,1
628.479,59.02198,-2.89217,15.67667,0.00E+00,70,-0.25354,1
628.979,59.07188,-2.89104,15.65622,0.00E+00,70,-0.25406,1
629.479,59.12178,-2.89172,15.64246,0.00E+00,70,-0.24992,1
629.979,59.17174,-2.8935,15.63851,0.00E+00,70,-0.2408,1
630.479,59.22176,-2.89328,15.59942,0.00E+00,70,-0.22724,1
630.979,59.27179,-2.89419,15.55336,0.00E+00,70,-0.21068,1
631.479,59.32186,-2.89217,15.55214,0.00E+00,70,-0.19314,1
631.979,59.37195,-2.89108,15.56561,0.00E+00,70,-0.17694,1
632.479,59.42199,-2.89002,15.57414,0.00E+00,70,-0.16417,1
632.979,59.472,-2.89015,15.57963,0.00E+00,70,-0.15624,1
633.479,59.52206,-2.88956,15.57587,0.00E+00,70,-0.15373,1
633.979,59.57212,-2.88877,15.56377,0.00E+00,70,-0.15635,1
634.479,59.62221,-2.88945,15.55489,0.00E+00,70,-0.16309,1
634.979,59.67237,-2.88779,15.54605,0.00E+00,70,-0.17257,1
635.479,59.72261,-2.88721,15.53414,0.00E+00,70,-0.18327,1
635.979,59.77284,-2.88752,15.521,0.00E+00,70,-0.19381,1
636.479,59.82302,-2.88856,15.51108,0.00E+00,70,-0.20315,1
636.979,59.87315,-2.88824,15.49965,0.00E+00,70,-0.21061,1
637.479,59.92321,-2.88643,15.48885,0.00E+00,70,-0.21582,1
637.979,59.9732,-2.88653,15.47978,0.00E+00,70,-0.21871,1
638.479,60.02316,-2.88799,15.46702,0.00E+00,70,-0.21936,1
638.979,60.07308,-2.88757,15.45357,0.00E+00,70,-0.21805,1
639.479,60.12299,-2.88747,15.43497,0.00E+00,70,-0.21513,1
639.979,60.17288,-2.88845,15.4215,0.00E+00,70,-0.21109,1
640.479,60.22274,-2.88761,15.41772,0.00E+00,70,-0.20645,1
640.979,60.27262,-2.88502,15.41075,0.00E+00,70,-0.20174,1
641.479,60.32259,-2.88446,15.40177,0.00E+00,70,-0.19741,1
641.979,60.37265,-2.8846,15.38996,0.00E+00,70,-0.19381,1
642.479,60.42272,-2.88481,15.38011,0.00E+00,70,-0.19112,1
642.979,60.4728,-2.88477,15.37129,0.00E+00,70,-0.18934,1
643.479,60.52284,-2.88549,15.36428,0.00E+00,70,-0.18835,1
643.979,60.57278,-2.88448,15.35928,0.00E+00,70,-0.1879,1
644.479,60.62267,-2.88465,15.34851,0.00E+00,70,-0.18774,1
644.979,60.67259,-2.88366,15.33544,0.00E+00,70,-0.18766,1
645.479,60.72255,-2.88391,15.32482,0.00E+00,70,-0.1876,1
645.979,60.77256,-2.88345,15.31317,0.00E+00,70,-0.18759,1
646.479,60.8226,-2.88058,15.30384,0.00E+00,70,-0.18781,1
646.979,60.87265,-2.88026,15.29613,0.00E+00,70,-0.18852,1
647.479,60.92268,-2.88088,15.28775,0.00E+00,70,-0.18995,1
647.979,60.97268,-2.87818,15.28061,0.00E+00,70,-0.19225,1
648.479,61.02269,-2.87347,15.27264,0.00E+00,70,-0.1954,1
648.979,61.07276,-2.87173,15.2636,0.00E+00,70,-0.19924,1
649.479,61.12282,-2.87138,15.256,0.00E+00,70,-0.20343,1
649.979,61.17288,-2.8717,15.24636,0.00E+00,70,-0.20754,1
650.479,61.22291,-2.87046,15.23366,0.00E+00,70,-0.21114,1
650.979,61.27287,-2.86979,15.21649,0.00E+00,70,-0.21387,1
651.479,61.32279,-2.87055,15.19997,0.00E+00,70,-0.21549,1
651.979,61.37273,-2.87081,15.19372,0.00E+00,70,-0.21593,1
652.479,61.42265,-2.87118,15.18781,0.00E+00,70,-0.21522,1
652.979,61.4726,-2.87126,15.17639,0.00E+00,70,-0.21352,1
653.479,61.52258,-2.87073,15.16296,0.00E+00,70,-0.21106,1
653.979,61.57256,-2.86899,15.1507,0.00E+00,70,-0.20813,1
654.479,61.62251,-2.86996,15.13881,0.00E+00,70,-0.20503,1
654.979,61.67243,-2.86993,15.12797,0.00E+00,70,-0.20205,1
655.479,61.72237,-2.86889,15.12001,0.00E+00,70,-0.1994,1
655.979,61.77232,-2.86899,15.11317,0.00E+00,70,-0.19719,1
656.479,61.82224,-2.86856,15.10395,0.00E+00,70,-0.19541,1
656.979,61.87221,-2.86796,15.09626,0.00E+00,70,-0.19391,1
657.479,61.92218,-2.8659,15.08733,0.00E+00,70,-0.19241,1
657.979,61.97214,-2.86621,15.07578,0.00E+00,70,-0.1906,1
658.479,62.02211,-2.86732,15.06475,0.00E+00,70,-0.1882,1
658.979,62.07209,-2.86603,15.05361,0.00E+00,70,-0.18502,1
659.479,62.12208,-2.86395,15.04237,0.00E+00,70,-0.18101,1
659.979,62.17214,-2.86345,15.03172,0.00E+00,70,-0.17631,1
660.479,62.22223,-2.86196,15.02211,0.00E+00,70,-0.17123,1
660.979,62.27232,-2.86036,15.01522,0.00E+00,70,-0.16613,1
661.479,62.32245,-2.86043,15.01022,0.00E+00,70,-0.16144,1
661.979,62.37255,-2.85929,15.00311,0.00E+00,70,-0.15749,1
662.479,62.42255,-2.85858,14.99621,0.00E+00,70,-0.15451,1
662.979,62.47255,-2.85884,14.98987,0.00E+00,70,-0.15259,1
663.479,62.52254,-2.85809,14.98111,0.00E+00,70,-0.15165,1
663.979,62.57249,-2.857,14.97149,0.00E+00,70,-0.15151,1
664.479,62.62245,-2.85555,14.96718,0.00E+00,70,-0.1519,1
664.979,62.67249,-2.85514,14.96593,0.00E+00,70,-0.15251,1
665.479,62.72255,-2.85449,14.95544,0.00E+00,70,-0.15304,1
665.979,62.7726,-2.85313,14.93887,0.00E+00,70,-0.15325,1
666.479,62.82273,-2.85285,14.93209,0.00E+00,70,-0.15301,1
666.979,62.87292,-2.85208,14.92779,0.00E+00,70,-0.15226,1
667.479,62.92308,-2.85028,14.91779,0.00E+00,70,-0.15105,1
667.979,62.97327,-2.85001,14.91131,0.00E+00,70,-0.14951,1
668.479,63.0235,-2.84966,14.90537,0.00E+00,70,-0.14784,1
668.979,63.07362,-2.85029,14.8981,0.00E+00,70,-0.14624,1
669.479,63.12368,-2.84987,14.88841,0.00E+00,70,-0.14494,1
669.979,63.17373,-2.84791,14.87974,0.00E+00,70,-0.14412,1
670.479,63.22371,-2.8477,14.87561,0.00E+00,70,-0.14396,1
670.979,63.27363,-2.84775,14.87007,0.00E+00,70,-0.14457,1
671.479,63.32359,-2.84746,14.86299,0.00E+00,70,-0.14607,1
671.979,63.37355,-2.84591,14.85662,0.00E+00,70,-0.14856,1
672.479,63.42352,-2.84626,14.85179,0.00E+00,70,-0.15213,1
672.979,63.47352,-2.84673,14.84336,0.00E+00,70,-0.15688,1
673.479,63.52351,-2.84559,14.83062,0.00E+00,70,-0.16289,1
673.979,63.57349,-2.84494,14.821,0.00E+00,70,-0.1702,1
674.479,63.6235,-2.845,14.81599,0.00E+00,70,-0.17874,1
674.979,63.67347,-2.84485,14.81125,0.00E+00,70,-0.18826,1
675.479,63.7234,-2.84403,14.809,0.00E+00,70,-0.19842,1
675.979,63.77336,-2.84399,14.8027,0.00E+00,70,-0.20871,1
676.479,63.82332,-2.84328,14.78234,0.00E+00,70,-0.21859,1
676.979,63.87321,-2.84215,14.76306,0.00E+00,70,-0.22753,1
677.479,63.92311,-2.84201,14.75287,0.00E+00,70,-0.23513,1
677.979,63.97305,-2.84039,14.74035,0.00E+00,70,-0.2411,1
678.479,64.02295,-2.83957,14.7268,0.00E+00,70,-0.2453,1
678.979,64.07286,-2.83985,14.71603,0.00E+00,70,-0.24765,1
679.479,64.12282,-2.83789,14.7049,0.00E+00,70,-0.24809,1
679.979,64.17278,-2.8365,14.68992,0.00E+00,70,-0.24647,1
680.479,64.22275,-2.83645,14.67679,0.00E+00,70,-0.2426,1
680.979,64.27276,-2.83544,14.66578,0.00E+00,70,-0.23626,1
681.479,64.32275,-2.83438,14.65548,0.00E+00,70,-0.2273,1
681.979,64.37272,-2.83373,14.6399,0.00E+00,70,-0.21578,1
682.479,64.42267,-2.83362,14.61838,0.00E+00,70,-0.202,1
682.979,64.4726,-2.83269,14.60687,0.00E+00,70,-0.18661,1
683.479,64.52249,-2.83044,14.60075,0.00E+00,70,-0.17049,1
683.979,64.57241,-2.83028,14.59087,0.00E+00,70,-0.15467,1
684.479,64.62231,-2.83016,14.58212,0.00E+00,70,-0.14018,1
684.979,64.67218,-2.82959,14.58614,0.00E+00,70,-0.12786,1
685.479,64.72202,-2.82893,14.59178,0.00E+00,70,-0.11823,1
685.979,64.77182,-2.82695,14.58468,0.00E+00,70,-0.11142,1
686.479,64.82158,-2.82692,14.57748,0.00E+00,70,-0.10725,1
686.979,64.87131,-2.82665,14.56968,0.00E+00,70,-0.10528,1
687.479,64.92109,-2.82473,14.56411,0.00E+00,70,-0.10498,1
687.979,64.97091,-2.82473,14.56292,0.00E+00,70,-0.10586,1
688.479,65.02073,-2.82547,14.557,0.00E+00,70,-0.10753,1
688.979,65.07055,-2.82397,14.54787,0.00E+00,70,-0.10979,1
689.479,65.12043,-2.82252,14.5422,0.00E+00,70,-0.11259,1
689.979,65.17028,-2.82146,14.53632,0.00E+00,70,-0.11598,1
690.479,65.2201,-2.81978,14.53173,0.00E+00,70,-0.12005,1
690.979,65.26997,-2.81832,14.52942,0.00E+00,70,-0.12485,1
691.479,65.31991,-2.81792,14.52676,0.00E+00,70,-0.13035,1
691.979,65.36981,-2.81596,14.51903,0.00E+00,70,-0.13635,1
692.479,65.41974,-2.81507,14.51031,0.00E+00,70,-0.14262,1
692.979,65.46975,-2.81444,14.50153,0.00E+00,70,-0.14881,1
693.479,65.51974,-2.81279,14.49347,0.00E+00,70,-0.15459,1
693.979,65.56972,-2.81051,14.48556,0.00E+00,70,-0.15963,1
694.479,65.61977,-2.80965,14.47735,0.00E+00,70,-0.16373,1
694.979,65.66984,-2.80806,14.46928,0.00E+00,70,-0.16674,1
695.479,65.71984,-2.80557,14.45851,0.00E+00,70,-0.16862,1
695.979,65.76985,-2.80532,14.4477,0.00E+00,70,-0.16945,1
696.479,65.81981,-2.80493,14.43835,0.00E+00,70,-0.16933,1
696.979,65.8697,-2.80316,14.43012,0.00E+00,70,-0.16839,1
697.479,65.91955,-2.80169,14.42342,0.00E+00,70,-0.16681,1
697.979,65.96939,-2.80086,14.41679,0.00E+00,70,-0.16475,1
698.479,66.01926,-2.79916,14.40961,0.00E+00,70,-0.16239,1
698.979,66.06915,-2.79791,14.40051,0.00E+00,70,-0.15996,1
699.479,66.11906,-2.79596,14.38735,0.00E+00,70,-0.15773,1
699.979,66.16899,-2.79584,14.37633,0.00E+00,70,-0.156,1
700.479,66.21892,-2.795,14.3719,0.00E+00,70,-0.15508,1
700.979,66.26886,-2.79347,14.36996,0.00E+00,70,-0.15522,1
701.479,66.31878,-2.79165,14.3641,0.00E+00,70,-0.15653,1
701.979,66.36871,-2.79049,14.35763,0.00E+00,70,-0.15901,1
702.479,66.41861,-2.7895,14.3495,0.00E+00,70,-0.16248,1
702.979,66.46853,-2.78862,14.34135,0.00E+00,70,-0.16665,1
703.479,66.51844,-2.78755,14.33336,0.00E+00,70,-0.17114,1
703.979,66.56832,-2.78657,14.32263,0.00E+00,70,-0.17556,1
704.479,66.61817,-2.78569,14.31194,0.00E+00,70,-0.17954,1
704.979,66.66805,-2.78364,14.30205,0.00E+00,70,-0.18284,1
705.479,66.71787,-2.78204,14.29276,0.00E+00,70,-0.18524,1
705.979,66.76768,-2.78022,14.28346,0.00E+00,70,-0.18664,1
706.479,66.8175,-2.77957,14.27505,0.00E+00,70,-0.18697,1
706.979,66.86731,-2.77837,14.26751,0.00E+00,70,-0.1862,1
707.479,66.91716,-2.77721,14.25369,0.00E+00,70,-0.18433,1
707.979,66.96704,-2.77599,14.24151,0.00E+00,70,-0.18139,1
708.479,67.0169,-2.77399,14.23429,0.00E+00,70,-0.17747,1
708.979,67.06681,-2.77385,14.22763,0.00E+00,70,-0.17271,1
709.479,67.11678,-2.77045,14.218,0.00E+00,70,-0.16736,1
709.979,67.16669,-2.76908,14.20635,0.00E+00,70,-0.16172,1
710.479,67.2166,-2.76884,14.19671,0.00E+00,70,-0.15613,1
710.979,67.2666,-2.76718,14.19138,0.00E+00,70,-0.1509,1
711.479,67.31657,-2.76575,14.18652,0.00E+00,70,-0.14637,1
711.979,67.36649,-2.76377,14.18119,0.00E+00,70,-0.14273,1
712.479,67.41644,-2.76308,14.1749,0.00E+00,70,-0.14011,1
712.979,67.4664,-2.76238,14.16866,0.00E+00,70,-0.13853,1
713.479,67.51636,-2.7604,14.16281,0.00E+00,70,-0.13794,1
713.979,67.56634,-2.75841,14.15522,0.00E+00,70,-0.13823,1
714.479,67.61632,-2.75707,14.14614,0.00E+00,70,-0.13928,1
714.979,67.66631,-2.75611,14.13998,0.00E+00,70,-0.14093,1
715.479,67.71631,-2.75521,14.1327,0.00E+00,70,-0.14303,1
715.979,67.76626,-2.75374,14.12657,0.00E+00,70,-0.14537,1
716.479,67.81617,-2.75172,14.12097,0.00E+00,70,-0.14771,1
716.979,67.86614,-2.75111,14.11785,0.00E+00,70,-0.1498,1
717.479,67.91611,-2.74926,14.10982,0.00E+00,70,-0.15134,1
717.979,67.96606,-2.74747,14.0939,0.00E+00,70,-0.15204,1
718.479,68.01603,-2.74692,14.08262,0.00E+00,70,-0.15167,1
718.979,68.06602,-2.74553,14.07806,0.00E+00,70,-0.15007,1
719.479,68.11596,-2.74404,14.07344,0.00E+00,70,-0.14719,1
719.979,68.16589,-2.74189,14.06525,0.00E+00,70,-0.14308,1
720.479,68.21583,-2.74065,14.05657,0.00E+00,70,-0.13794,1
720.979,68.26571,-2.73954,14.04793,0.00E+00,70,-0.13213,1
721.479,68.31556,-2.73713,14.03934,0.00E+00,70,-0.1261,1
721.979,68.36539,-2.73738,14.03321,0.00E+00,70,-0.12035,1
722.479,68.41527,-2.73569,14.02671,0.00E+00,70,-0.11544,1
722.979,68.46516,-2.7334,14.02074,0.00E+00,70,-0.11182,1
723.479,68.51513,-2.73124,14.02413,0.00E+00,70,-0.10981,1
723.979,68.56516,-2.72869,14.02224,0.00E+00,70,-0.10953,1
724.479,68.61519,-2.72576,14.01666,0.00E+00,70,-0.11085,1
724.979,68.66518,-2.72388,14.01017,0.00E+00,70,-0.11343,1
725.479,68.71513,-2.72274,14.00505,0.00E+00,70,-0.11681,1
725.979,68.765,-2.7205,14.00003,0.00E+00,70,-0.12045,1
726.479,68.81488,-2.71867,13.98906,0.00E+00,70,-0.12388,1
726.979,68.8648,-2.71747,13.98089,0.00E+00,70,-0.12675,1
727.479,68.91477,-2.71535,13.97555,0.00E+00,70,-0.12882,1
727.979,68.96482,-2.71317,13.96854,0.00E+00,70,-0.13002,1
728.479,69.01496,-2.71174,13.9633,0.00E+00,70,-0.13041,1
728.979,69.06509,-2.71101,13.95539,0.00E+00,70,-0.13013,1
729.479,69.11518,-2.70995,13.94848,0.00E+00,70,-0.12939,1
729.979,69.16519,-2.70884,13.942,0.00E+00,70,-0.12844,1
730.479,69.21512,-2.70814,13.93466,0.00E+00,70,-0.12752,1
730.979,69.26496,-2.70637,13.92906,0.00E+00,70,-0.12686,1
731.479,69.31476,-2.70404,13.9239,0.00E+00,70,-0.12667,1
731.979,69.36465,-2.703,13.9175,0.00E+00,70,-0.12709,1
732.479,69.41455,-2.70217,13.91167,0.00E+00,70,-0.12822,1
732.979,69.46452,-2.69919,13.9069,0.00E+00,70,-0.13008,1
733.479,69.51454,-2.69844,13.90165,0.00E+00,70,-0.1326,1
733.979,69.5646,-2.69595,13.89507,0.00E+00,70,-0.1356,1
734.479,69.61457,-2.69445,13.88731,0.00E+00,70,-0.13882,1
734.979,69.6646,-2.69349,13.87822,0.00E+00,70,-0.14189,1
735.479,69.71462,-2.69162,13.87089,0.00E+00,70,-0.14437,1
735.979,69.76468,-2.68788,13.86756,0.00E+00,70,-0.1458,1
736.479,69.81474,-2.68523,13.86146,0.00E+00,70,-0.14572,1
736.979,69.86485,-2.68303,13.85204,0.00E+00,70,-0.14379,1
737.479,69.91497,-2.68231,13.83969,0.00E+00,70,-0.13981,1
737.979,69.96508,-2.67966,13.82455,0.00E+00,70,-0.13376,1
738.479,70.01514,-2.67777,13.81496,0.00E+00,70,-0.12589,1
738.979,70.06522,-2.67439,13.81439,0.00E+00,70,-0.1166,1
739.479,70.11531,-2.67219,13.81315,0.00E+00,70,-0.10646,1
739.979,70.16537,-2.67207,13.8072,0.00E+00,70,-9.62E-02,1
740.479,70.21545,-2.67028,13.80154,0.00E+00,70,-8.65E-02,1
740.979,70.26551,-2.66933,13.79594,0.00E+00,70,-7.81E-02,1
741.479,70.31553,-2.66715,13.78863,0.00E+00,70,-7.16E-02,1
741.979,70.3655,-2.66518,13.7907,0.00E+00,70,-6.76E-02,1
742.479,70.41539,-2.66346,13.79694,0.00E+00,70,-6.64E-02,1
742.979,70.46523,-2.66236,13.79158,0.00E+00,70,-6.80E-02,1
743.479,70.51507,-2.66026,13.78871,0.00E+00,70,-7.22E-02,1
743.979,70.56491,-2.65904,13.78865,0.00E+00,70,-7.86E-02,1
744.479,70.61474,-2.65785,13.78857,0.00E+00,70,-8.65E-02,1
744.979,70.66461,-2.65595,13.78251,0.00E+00,70,-9.50E-02,1
745.479,70.71449,-2.65547,13.77677,0.00E+00,70,-0.10335,1
745.979,70.76437,-2.6549,13.76906,0.00E+00,70,-0.11076,1
746.479,70.81423,-2.65455,13.75848,0.00E+00,70,-0.11671,1
746.979,70.86411,-2.65369,13.7512,0.00E+00,70,-0.12099,1
747.479,70.914,-2.65168,13.74259,0.00E+00,70,-0.12368,1
747.979,70.96395,-2.65079,13.73536,0.00E+00,70,-0.12511,1
748.479,71.01389,-2.64915,13.72795,0.00E+00,70,-0.12578,1
748.979,71.06383,-2.64733,13.72289,0.00E+00,70,-0.12622,1
749.479,71.11376,-2.64395,13.72042,0.00E+00,70,-0.12689,1
749.979,71.16364,-2.6423,13.71663,0.00E+00,70,-0.12805,1
750.479,71.21341,-2.64068,13.71247,0.00E+00,70,-0.12979,1
750.979,71.26315,-2.63922,13.70581,0.00E+00,70,-0.13201,1
751.479,71.31283,-2.63722,13.69817,0.00E+00,70,-0.1345,1
751.979,71.36247,-2.63772,13.68916,0.00E+00,70,-0.13701,1
752.479,71.41212,-2.63663,13.67936,0.00E+00,70,-0.13936,1
752.979,71.46182,-2.63523,13.67142,0.00E+00,70,-0.14145,1
753.479,71.51152,-2.63461,13.66536,0.00E+00,70,-0.14326,1
753.979,71.56135,-2.6335,13.65951,0.00E+00,70,-0.14492,1
754.479,71.61119,-2.63075,13.65421,0.00E+00,70,-0.1466,1
754.979,71.66106,-2.62984,13.64661,0.00E+00,70,-0.14852,1
755.479,71.71098,-2.62657,13.63898,0.00E+00,70,-0.15097,1
755.979,71.76092,-2.62471,13.63039,0.00E+00,70,-0.15427,1
756.479,71.81081,-2.62195,13.62324,0.00E+00,70,-0.15879,1
756.979,71.86078,-2.61917,13.61534,0.00E+00,70,-0.16488,1
757.479,71.9108,-2.61701,13.60518,0.00E+00,70,-0.17277,1
757.979,71.96082,-2.61468,13.5977,0.00E+00,70,-0.18238,1
758.479,72.01085,-2.61222,13.59389,0.00E+00,70,-0.19316,1
758.979,72.06091,-2.60943,13.58754,0.00E+00,70,-0.20396,1
759.479,72.11098,-2.60775,13.58072,0.00E+00,70,-0.21308,1
759.979,72.16104,-2.6049,13.57053,0.00E+00,70,-0.21845,1
760.479,72.2111,-2.60206,13.56038,0.00E+00,70,-0.21803,1
760.979,72.26118,-2.59917,13.55613,0.00E+00,70,-0.21034,1
761.479,72.31132,-2.59774,13.53665,0.00E+00,70,-0.19485,1
761.979,72.36142,-2.59613,13.46455,0.00E+00,70,-0.17239,1
762.479,72.4115,-2.59331,13.42795,0.00E+00,70,-0.14502,1
762.979,72.46162,-2.58929,13.44255,0.00E+00,70,-0.11569,1
763.479,72.51173,-2.58646,13.4781,0.00E+00,70,-8.77E-02,1
763.979,72.56182,-2.58403,13.49493,0.00E+00,70,-6.41E-02,1
764.479,72.61191,-2.58229,13.49995,0.00E+00,70,-4.69E-02,1
764.979,72.66199,-2.58054,13.49765,0.00E+00,70,-3.71E-02,1
765.479,72.71202,-2.57843,13.49361,0.00E+00,70,-3.46E-02,1
765.979,72.76199,-2.57689,13.49091,0.00E+00,70,-3.81E-02,1
766.479,72.81192,-2.57512,13.49032,0.00E+00,70,-4.62E-02,1
766.979,72.86184,-2.57361,13.48455,0.00E+00,70,-5.73E-02,1
767.479,72.91176,-2.5726,13.47848,0.00E+00,70,-7.00E-02,1
767.979,72.96171,-2.57128,13.47432,0.00E+00,70,-8.33E-02,1
768.479,73.01171,-2.56981,13.47364,0.00E+00,70,-9.64E-02,1
768.979,73.06168,-2.56715,13.47367,0.00E+00,70,-0.10887,1
769.479,73.11162,-2.56634,13.46902,0.00E+00,70,-0.12026,1
769.979,73.16158,-2.56576,13.4557,0.00E+00,70,-0.13035,1
770.479,73.21149,-2.56415,13.44391,0.00E+00,70,-0.13894,1
770.979,73.26137,-2.56228,13.43478,0.00E+00,70,-0.14589,1
771.479,73.31127,-2.55992,13.42939,0.00E+00,70,-0.15114,1
771.979,73.36122,-2.5584,13.42347,0.00E+00,70,-0.15467,1
772.479,73.41112,-2.55732,13.4134,0.00E+00,70,-0.15651,1
772.979,73.461,-2.55593,13.40482,0.00E+00,70,-0.1567,1
773.479,73.5109,-2.55206,13.39674,0.00E+00,70,-0.15527,1
773.979,73.5608,-2.5504,13.39011,0.00E+00,70,-0.15226,1
774.479,73.61062,-2.54891,13.37991,0.00E+00,70,-0.14775,1
774.979,73.66045,-2.54513,13.36991,0.00E+00,70,-0.14187,1
775.479,73.71032,-2.54361,13.36091,0.00E+00,70,-0.13483,1
775.979,73.76019,-2.54171,13.35618,0.00E+00,70,-0.127,1
776.479,73.81007,-2.5388,13.34987,0.00E+00,70,-0.11881,1
776.979,73.86,-2.53503,13.34341,0.00E+00,70,-0.11077,1
777.479,73.91001,-2.5327,13.33639,0.00E+00,70,-0.10343,1
777.979,73.96004,-2.52967,13.33334,0.00E+00,70,-9.73E-02,1
778.479,74.01005,-2.52663,13.33258,0.00E+00,70,-9.26E-02,1
778.979,74.06009,-2.52344,13.33205,0.00E+00,70,-8.97E-02,1
779.479,74.1102,-2.5221,13.32791,0.00E+00,70,-8.85E-02,1
779.979,74.1603,-2.5188,13.32243,0.00E+00,70,-8.86E-02,1
780.479,74.21039,-2.51571,13.31728,0.00E+00,70,-8.98E-02,1
780.979,74.26054,-2.5122,13.31751,0.00E+00,70,-9.16E-02,1
781.479,74.31066,-2.50951,13.31428,0.00E+00,70,-9.36E-02,1
781.979,74.36065,-2.5067,13.30672,0.00E+00,70,-9.54E-02,1
782.479,74.41057,-2.50383,13.29403,0.00E+00,70,-9.69E-02,1
782.979,74.46052,-2.50068,13.28556,0.00E+00,70,-9.83E-02,1
783.479,74.51042,-2.49775,13.28451,0.00E+00,70,-9.98E-02,1
783.979,74.56034,-2.49384,13.28513,0.00E+00,70,-0.10185,1
784.479,74.6103,-2.49168,13.28071,0.00E+00,70,-0.10495,1
784.979,74.6603,-2.48861,13.27583,0.00E+00,70,-0.10967,1
785.479,74.7102,-2.48662,13.27068,0.00E+00,70,-0.11647,1
785.979,74.76008,-2.48421,13.26435,0.00E+00,70,-0.12574,1
786.479,74.80995,-2.48215,13.25839,0.00E+00,70,-0.1376,1
786.979,74.85984,-2.47985,13.25361,0.00E+00,70,-0.15179,1
787.479,74.90968,-2.47721,13.2484,0.00E+00,70,-0.16749,1
787.979,74.95961,-2.47502,13.24233,0.00E+00,70,-0.18331,1
788.479,75.00961,-2.47039,13.23743,0.00E+00,70,-0.19724,1
788.979,75.05964,-2.46905,13.23065,0.00E+00,70,-0.20691,1
789.479,75.10961,-2.46688,13.21993,0.00E+00,70,-0.20999,1
789.979,75.15964,-2.4644,13.21212,0.00E+00,70,-0.20475,1
790.479,75.20965,-2.46289,13.19216,0.00E+00,70,-0.19053,1
790.979,75.25956,-2.46017,13.12254,0.00E+00,70,-0.16804,1
791.479,75.30947,-2.45726,13.08567,0.00E+00,70,-0.13938,1
791.979,75.35938,-2.45422,13.10115,0.00E+00,70,-0.10765,1
792.479,75.40926,-2.44937,13.12094,0.00E+00,70,-7.63E-02,1
792.979,75.45912,-2.44754,13.14363,0.00E+00,70,-4.84E-02,1
793.479,75.509,-2.44324,13.15895,0.00E+00,70,-2.57E-02,1
793.979,75.55881,-2.43966,13.15603,0.00E+00,70,-7.42E-03,1
794.479,75.60864,-2.43774,13.15587,0.00E+00,70,8.11E-03,1
794.979,75.65845,-2.43591,13.15792,0.00E+00,70,1.53E-02,1
795.479,75.70826,-2.43502,13.15476,0.00E+00,70,4.46E-03,1
795.979,75.75805,-2.4315,13.14949,0.00E+00,70,-1.87E-02,1
796.479,75.80789,-2.42852,13.14363,0.00E+00,70,-3.60E-02,1
796.979,75.8576,-2.42609,13.14176,0.00E+00,70,-3.92E-02,1
797.479,75.90741,-2.42337,13.14187,0.00E+00,70,-3.27E-02,1
