##Temp./›C,Time/min,DSC/(uV/mg),Mass/%,Gas Flow(purge2)/(ml/min),Gas Flow(protective)/(ml/min),DTG/(%/min),Sensit./(uV/mW)
40.012,0,-6.92E-03,100,0.00E+00,70,6.19821,1
40.512,0.68263,-2.15E-02,100,0.00E+00,70,-9.20E-02,1
41.012,0.89359,-2.63E-02,99.94145,0.00E+00,70,-0.35113,1
41.512,1.04822,-3.27E-02,99.8664,0.00E+00,70,-0.42455,1
42.012,1.17673,-3.64E-02,99.8049,0.00E+00,70,-0.43844,1
42.512,1.28923,-4.05E-02,99.73859,0.00E+00,70,-0.42147,1
43.012,1.39131,-4.32E-02,99.69722,0.00E+00,70,-0.39193,1
43.512,1.48599,-4.58E-02,99.67462,0.00E+00,70,-0.3614,1
44.012,1.57478,-4.63E-02,99.65093,0.00E+00,70,-0.33534,1
44.512,1.65918,-4.80E-02,99.60932,0.00E+00,70,-0.31497,1
45.012,1.74024,-4.84E-02,99.59054,0.00E+00,70,-0.29981,1
45.512,1.81872,-5.01E-02,99.57032,0.00E+00,70,-0.28886,1
46.012,1.89488,-4.80E-02,99.54976,0.00E+00,70,-0.2809,1
46.512,1.9693,-4.91E-02,99.54041,0.00E+00,70,-0.27449,1
47.012,2.04232,-4.89E-02,99.50732,0.00E+00,70,-0.2682,1
47.512,2.11404,-4.80E-02,99.48504,0.00E+00,70,-0.26104,1
48.012,2.18447,-4.75E-02,99.47153,0.00E+00,70,-0.25266,1
48.512,2.25354,-4.89E-02,99.4475,0.00E+00,70,-0.2434,1
49.012,2.32141,-4.69E-02,99.44337,0.00E+00,70,-0.23405,1
49.512,2.38828,-4.74E-02,99.42154,0.00E+00,70,-0.22551,1
50.012,2.45435,-4.65E-02,99.40268,0.00E+00,70,-0.21858,1
50.512,2.51966,-4.69E-02,99.39244,0.00E+00,70,-0.21366,1
51.012,2.58426,-4.64E-02,99.38355,0.00E+00,70,-0.21064,1
51.512,2.64812,-4.59E-02,99.37529,0.00E+00,70,-0.20888,1
52.012,2.71141,-4.64E-02,99.36602,0.00E+00,70,-0.20731,1
52.512,2.77408,-4.63E-02,99.34368,0.00E+00,70,-0.20481,1
53.012,2.83617,-4.73E-02,99.32302,0.00E+00,70,-0.20048,1
53.512,2.89758,-4.72E-02,99.31345,0.00E+00,70,-0.19388,1
54.012,2.95839,-4.76E-02,99.30132,0.00E+00,70,-0.18512,1
54.512,3.01848,-4.83E-02,99.28992,0.00E+00,70,-0.17476,1
55.012,3.07795,-4.90E-02,99.283,0.00E+00,70,-0.16361,1
55.512,3.13678,-5.00E-02,99.27414,0.00E+00,70,-0.15253,1
56.012,3.19486,-5.12E-02,99.25715,0.00E+00,70,-0.14238,1
56.512,3.25219,-5.30E-02,99.25101,0.00E+00,70,-0.13378,1
57.012,3.30885,-5.42E-02,99.25579,0.00E+00,70,-0.12718,1
57.512,3.3648,-5.49E-02,99.24864,0.00E+00,70,-0.12286,1
58.012,3.42017,-5.60E-02,99.24032,0.00E+00,70,-0.12093,1
58.512,3.47501,-5.75E-02,99.23293,0.00E+00,70,-0.1214,1
59.012,3.52918,-5.87E-02,99.2253,0.00E+00,70,-0.12416,1
59.512,3.58271,-6.08E-02,99.21936,0.00E+00,70,-0.12894,1
60.012,3.63562,-6.22E-02,99.21789,0.00E+00,70,-0.13533,1
60.512,3.68795,-6.41E-02,99.21396,0.00E+00,70,-0.14278,1
61.012,3.73985,-6.47E-02,99.20644,0.00E+00,70,-0.15061,1
61.512,3.79141,-6.77E-02,99.19897,0.00E+00,70,-0.1581,1
62.012,3.84253,-6.88E-02,99.18814,0.00E+00,70,-0.16448,1
62.512,3.8933,-7.15E-02,99.17561,0.00E+00,70,-0.16918,1
63.012,3.9436,-7.23E-02,99.1629,0.00E+00,70,-0.1718,1
63.512,3.99335,-7.56E-02,99.15379,0.00E+00,70,-0.17222,1
64.012,4.04277,-7.71E-02,99.14568,0.00E+00,70,-0.17055,1
64.512,4.09188,-7.79E-02,99.13268,0.00E+00,70,-0.1671,1
65.012,4.14056,-8.04E-02,99.12173,0.00E+00,70,-0.16226,1
65.512,4.1889,-8.27E-02,99.11838,0.00E+00,70,-0.15649,1
66.012,4.23693,-8.34E-02,99.11564,0.00E+00,70,-0.15021,1
66.512,4.2846,-8.49E-02,99.1095,0.00E+00,70,-0.14384,1
67.012,4.3319,-8.72E-02,99.10065,0.00E+00,70,-0.13776,1
67.512,4.37896,-8.99E-02,99.091,0.00E+00,70,-0.13231,1
68.012,4.42583,-9.15E-02,99.08267,0.00E+00,70,-0.12785,1
68.512,4.47248,-9.21E-02,99.07754,0.00E+00,70,-0.12473,1
69.012,4.51888,-9.46E-02,99.07467,0.00E+00,70,-0.12326,1
69.512,4.56503,-9.74E-02,99.07035,0.00E+00,70,-0.12368,1
70.012,4.61098,-9.80E-02,99.06925,0.00E+00,70,-0.12611,1
70.512,4.65662,-9.97E-02,99.07317,0.00E+00,70,-0.13054,1
71.012,4.70204,-0.10231,99.06403,0.00E+00,70,-0.13682,1
71.512,4.74725,-0.10391,99.05149,0.00E+00,70,-0.14472,1
72.012,4.7923,-0.10625,99.04757,0.00E+00,70,-0.1539,1
72.512,4.83713,-0.10911,99.0441,0.00E+00,70,-0.16397,1
73.012,4.88183,-0.10981,99.0363,0.00E+00,70,-0.17458,1
73.512,4.92639,-0.11072,99.0265,0.00E+00,70,-0.18537,1
74.012,4.97077,-0.11346,99.01646,0.00E+00,70,-0.19602,1
74.512,5.01498,-0.11556,99.0069,0.00E+00,70,-0.20626,1
75.012,5.05906,-0.11697,98.99835,0.00E+00,70,-0.21587,1
75.512,5.10301,-0.11981,98.98947,0.00E+00,70,-0.22465,1
76.012,5.14678,-0.1217,98.97859,0.00E+00,70,-0.23239,1
76.512,5.19044,-0.1235,98.9666,0.00E+00,70,-0.2389,1
77.012,5.23403,-0.12533,98.95561,0.00E+00,70,-0.24397,1
77.512,5.27753,-0.12712,98.94438,0.00E+00,70,-0.24739,1
78.012,5.32097,-0.12904,98.93173,0.00E+00,70,-0.24896,1
78.512,5.36433,-0.13179,98.91904,0.00E+00,70,-0.2485,1
79.012,5.40762,-0.135,98.90743,0.00E+00,70,-0.24592,1
79.512,5.45078,-0.13721,98.89815,0.00E+00,70,-0.24124,1
80.012,5.49381,-0.13968,98.89071,0.00E+00,70,-0.23458,1
80.512,5.53667,-0.14276,98.86675,0.00E+00,70,-0.22623,1
81.012,5.57937,-0.14504,98.85244,0.00E+00,70,-0.21659,1
81.512,5.62195,-0.14783,98.84552,0.00E+00,70,-0.20615,1
82.012,5.66444,-0.15094,98.83828,0.00E+00,70,-0.19547,1
82.512,5.70688,-0.1532,98.83561,0.00E+00,70,-0.18509,1
83.012,5.74927,-0.15615,98.83008,0.00E+00,70,-0.17553,1
83.512,5.79168,-0.15949,98.82365,0.00E+00,70,-0.16722,1
84.012,5.83401,-0.16302,98.81842,0.00E+00,70,-0.16048,1
84.512,5.87625,-0.16518,98.8122,0.00E+00,70,-0.15544,1
85.012,5.9184,-0.16759,98.8072,0.00E+00,70,-0.15212,1
85.512,5.96041,-0.17181,98.80431,0.00E+00,70,-0.15037,1
86.012,6.0023,-0.17602,98.7999,0.00E+00,70,-0.14999,1
86.512,6.04397,-0.17905,98.79476,0.00E+00,70,-0.1507,1
87.012,6.08561,-0.18163,98.78845,0.00E+00,70,-0.15222,1
87.512,6.12718,-0.18574,98.77757,0.00E+00,70,-0.1543,1
88.012,6.16868,-0.18929,98.76853,0.00E+00,70,-0.15673,1
88.512,6.21012,-0.19202,98.76438,0.00E+00,70,-0.15932,1
89.012,6.2515,-0.19612,98.75897,0.00E+00,70,-0.16193,1
89.512,6.29293,-0.19921,98.75187,0.00E+00,70,-0.16442,1
90.012,6.33427,-0.20317,98.74363,0.00E+00,70,-0.16664,1
90.512,6.37554,-0.20723,98.73622,0.00E+00,70,-0.16842,1
91.012,6.41677,-0.21102,98.73172,0.00E+00,70,-0.16957,1
91.512,6.45796,-0.21522,98.72868,0.00E+00,70,-0.16989,1
92.012,6.49917,-0.21932,98.72214,0.00E+00,70,-0.1692,1
92.512,6.54034,-0.22229,98.71074,0.00E+00,70,-0.16739,1
93.012,6.58148,-0.22634,98.70222,0.00E+00,70,-0.16443,1
93.512,6.62262,-0.2303,98.69176,0.00E+00,70,-0.16041,1
94.012,6.66376,-0.23401,98.67745,0.00E+00,70,-0.15557,1
94.512,6.70489,-0.23848,98.66639,0.00E+00,70,-0.15026,1
95.012,6.74596,-0.24275,98.66248,0.00E+00,70,-0.14488,1
95.512,6.78699,-0.24701,98.66218,0.00E+00,70,-0.13989,1
96.012,6.82803,-0.25084,98.66265,0.00E+00,70,-0.13565,1
96.512,6.8691,-0.25525,98.66141,0.00E+00,70,-0.13247,1
97.012,6.91017,-0.25992,98.65743,0.00E+00,70,-0.1305,1
97.512,6.95121,-0.26375,98.65228,0.00E+00,70,-0.12974,1
98.012,6.99225,-0.26837,98.64818,0.00E+00,70,-0.13004,1
98.512,7.03328,-0.27248,98.64379,0.00E+00,70,-0.13115,1
99.012,7.0743,-0.27682,98.63646,0.00E+00,70,-0.13273,1
99.512,7.11527,-0.28089,98.62883,0.00E+00,70,-0.13441,1
100.012,7.1562,-0.28427,98.62288,0.00E+00,70,-0.13585,1
100.512,7.19711,-0.28843,98.61567,0.00E+00,70,-0.13674,1
101.012,7.23806,-0.29265,98.60928,0.00E+00,70,-0.13686,1
101.512,7.27909,-0.29727,98.60428,0.00E+00,70,-0.13602,1
102.012,7.32014,-0.30138,98.5982,0.00E+00,70,-0.13413,1
102.512,7.36117,-0.30505,98.59094,0.00E+00,70,-0.13113,1
103.012,7.40223,-0.30933,98.5851,0.00E+00,70,-0.12698,1
103.512,7.44336,-0.31353,98.58015,0.00E+00,70,-0.12167,1
104.012,7.48447,-0.3178,98.57305,0.00E+00,70,-0.11521,1
104.512,7.52555,-0.32162,98.56742,0.00E+00,70,-0.1076,1
105.012,7.56666,-0.32511,98.56445,0.00E+00,70,-9.89E-02,1
105.512,7.60782,-0.3286,98.56088,0.00E+00,70,-8.91E-02,1
106.012,7.64907,-0.33222,98.55567,0.00E+00,70,-7.83E-02,1
106.512,7.69033,-0.33654,98.55255,0.00E+00,70,-6.68E-02,1
107.012,7.73161,-0.34025,98.54884,0.00E+00,70,-5.48E-02,1
107.512,7.7729,-0.34319,98.54457,0.00E+00,70,-4.28E-02,1
108.012,7.8142,-0.34724,98.54054,0.00E+00,70,-3.12E-02,1
108.512,7.85548,-0.35204,98.53811,0.00E+00,70,-2.07E-02,1
109.012,7.89671,-0.35481,98.53828,0.00E+00,70,-1.17E-02,1
109.512,7.93791,-0.35838,98.53704,0.00E+00,70,-4.66E-03,1
110.012,7.97916,-0.36246,98.54585,0.00E+00,70,-2.27E-05,1
110.512,8.02046,-0.36621,98.55515,0.00E+00,70,2.10E-03,1
111.012,8.0618,-0.36947,98.55725,0.00E+00,70,1.78E-03,1
111.512,8.10322,-0.37276,98.56106,0.00E+00,70,-6.78E-04,1
112.012,8.14466,-0.37671,98.56774,0.00E+00,70,-4.75E-03,1
112.512,8.18618,-0.38024,98.56422,0.00E+00,70,-9.79E-03,1
113.012,8.22772,-0.3838,98.55788,0.00E+00,70,-1.50E-02,1
113.512,8.26932,-0.38787,98.5539,0.00E+00,70,-1.98E-02,1
114.012,8.31097,-0.39161,98.5513,0.00E+00,70,-2.35E-02,1
114.512,8.35265,-0.39444,98.5492,0.00E+00,70,-2.56E-02,1
115.012,8.39443,-0.39787,98.54516,0.00E+00,70,-2.61E-02,1
115.512,8.43631,-0.40241,98.53875,0.00E+00,70,-2.49E-02,1
116.012,8.47825,-0.40574,98.53488,0.00E+00,70,-2.23E-02,1
116.512,8.52019,-0.40876,98.53467,0.00E+00,70,-1.86E-02,1
117.012,8.56212,-0.41262,98.53631,0.00E+00,70,-1.42E-02,1
117.512,8.60407,-0.41617,98.53835,0.00E+00,70,-9.72E-03,1
118.012,8.64598,-0.41947,98.53936,0.00E+00,70,-5.43E-03,1
118.512,8.68783,-0.42354,98.54025,0.00E+00,70,-1.67E-03,1
119.012,8.72963,-0.42639,98.54214,0.00E+00,70,1.37E-03,1
119.512,8.77148,-0.42901,98.54393,0.00E+00,70,3.60E-03,1
120.012,8.81336,-0.43278,98.5444,0.00E+00,70,4.99E-03,1
120.512,8.85526,-0.43666,98.54447,0.00E+00,70,5.56E-03,1
121.012,8.89723,-0.43948,98.54452,0.00E+00,70,5.33E-03,1
121.512,8.93928,-0.442,98.54125,0.00E+00,70,4.32E-03,1
122.012,8.98141,-0.4461,98.54109,0.00E+00,70,2.53E-03,1
122.512,9.02359,-0.45047,98.54258,0.00E+00,70,-6.61E-05,1
123.012,9.0658,-0.45347,98.54364,0.00E+00,70,-3.46E-03,1
123.512,9.10801,-0.45677,98.54437,0.00E+00,70,-7.58E-03,1
124.012,9.15022,-0.46153,98.54441,0.00E+00,70,-1.23E-02,1
124.512,9.19244,-0.4639,98.54759,0.00E+00,70,-1.74E-02,1
125.012,9.23463,-0.46746,98.54968,0.00E+00,70,-2.25E-02,1
125.512,9.2768,-0.47137,98.55297,0.00E+00,70,-2.74E-02,1
126.012,9.319,-0.47454,98.55021,0.00E+00,70,-3.15E-02,1
126.512,9.36126,-0.47744,98.54107,0.00E+00,70,-3.47E-02,1
127.012,9.40357,-0.48092,98.53521,0.00E+00,70,-3.67E-02,1
127.512,9.44597,-0.48549,98.52882,0.00E+00,70,-3.74E-02,1
128.012,9.48843,-0.48846,98.52412,0.00E+00,70,-3.69E-02,1
128.512,9.53096,-0.49147,98.52203,0.00E+00,70,-3.55E-02,1
129.012,9.57356,-0.49437,98.52293,0.00E+00,70,-3.35E-02,1
129.512,9.6162,-0.49761,98.52554,0.00E+00,70,-3.12E-02,1
130.012,9.65886,-0.50158,98.52716,0.00E+00,70,-2.90E-02,1
130.512,9.7015,-0.50473,98.52701,0.00E+00,70,-2.71E-02,1
131.012,9.74413,-0.50815,98.52702,0.00E+00,70,-2.59E-02,1
131.512,9.78678,-0.51236,98.52643,0.00E+00,70,-2.52E-02,1
132.012,9.82941,-0.51604,98.52346,0.00E+00,70,-2.51E-02,1
132.512,9.87209,-0.51928,98.52143,0.00E+00,70,-2.56E-02,1
133.012,9.91483,-0.52203,98.52001,0.00E+00,70,-2.65E-02,1
133.512,9.95761,-0.52489,98.51834,0.00E+00,70,-2.78E-02,1
134.012,10.0005,-0.5292,98.51957,0.00E+00,70,-2.95E-02,1
134.512,10.04343,-0.53267,98.51852,0.00E+00,70,-3.14E-02,1
135.012,10.08642,-0.53657,98.5176,0.00E+00,70,-3.36E-02,1
135.512,10.12941,-0.53902,98.51496,0.00E+00,70,-3.62E-02,1
136.012,10.17243,-0.54242,98.51212,0.00E+00,70,-3.92E-02,1
136.512,10.21547,-0.54681,98.51004,0.00E+00,70,-4.25E-02,1
137.012,10.25853,-0.54983,98.50818,0.00E+00,70,-4.60E-02,1
137.512,10.30167,-0.55295,98.50843,0.00E+00,70,-4.94E-02,1
138.012,10.34488,-0.55597,98.50958,0.00E+00,70,-5.25E-02,1
138.512,10.38815,-0.55916,98.50947,0.00E+00,70,-5.49E-02,1
139.012,10.43149,-0.56237,98.51053,0.00E+00,70,-5.61E-02,1
139.512,10.47488,-0.56632,98.50507,0.00E+00,70,-5.57E-02,1
140.012,10.51833,-0.57002,98.49373,0.00E+00,70,-5.37E-02,1
140.512,10.56182,-0.57286,98.48324,0.00E+00,70,-4.98E-02,1
141.012,10.60531,-0.57606,98.47555,0.00E+00,70,-4.44E-02,1
141.512,10.64884,-0.57927,98.47482,0.00E+00,70,-3.77E-02,1
142.012,10.69241,-0.58259,98.47701,0.00E+00,70,-3.03E-02,1
142.512,10.736,-0.58652,98.4783,0.00E+00,70,-2.28E-02,1
143.012,10.7796,-0.58923,98.4794,0.00E+00,70,-1.58E-02,1
143.512,10.82321,-0.59243,98.48007,0.00E+00,70,-9.69E-03,1
144.012,10.86686,-0.59662,98.48263,0.00E+00,70,-4.88E-03,1
144.512,10.91053,-0.6,98.48669,0.00E+00,70,-1.49E-03,1
145.012,10.95423,-0.60307,98.48727,0.00E+00,70,5.17E-04,1
145.512,10.99802,-0.60674,98.48727,0.00E+00,70,1.33E-03,1
146.012,11.04186,-0.61068,98.48747,0.00E+00,70,1.22E-03,1
146.512,11.08578,-0.61345,98.48545,0.00E+00,70,4.88E-04,1
147.012,11.12979,-0.61749,98.48451,0.00E+00,70,-6.11E-04,1
147.512,11.17393,-0.62062,98.48512,0.00E+00,70,-1.89E-03,1
148.012,11.21812,-0.62333,98.4839,0.00E+00,70,-3.27E-03,1
148.512,11.26231,-0.62698,98.48217,0.00E+00,70,-4.76E-03,1
149.012,11.30656,-0.62967,98.48219,0.00E+00,70,-6.45E-03,1
149.512,11.35086,-0.63391,98.48108,0.00E+00,70,-8.47E-03,1
150.012,11.39519,-0.63797,98.48323,0.00E+00,70,-1.10E-02,1
150.512,11.43952,-0.63989,98.48572,0.00E+00,70,-1.40E-02,1
151.012,11.48391,-0.64278,98.48623,0.00E+00,70,-1.77E-02,1
151.512,11.52843,-0.64655,98.48552,0.00E+00,70,-2.19E-02,1
152.012,11.57302,-0.6505,98.48363,0.00E+00,70,-2.67E-02,1
152.512,11.61766,-0.65422,98.48183,0.00E+00,70,-3.17E-02,1
153.012,11.66235,-0.65694,98.48058,0.00E+00,70,-3.68E-02,1
153.512,11.70712,-0.65964,98.47823,0.00E+00,70,-4.18E-02,1
154.012,11.75193,-0.66313,98.476,0.00E+00,70,-4.64E-02,1
154.512,11.79676,-0.66547,98.47371,0.00E+00,70,-5.05E-02,1
155.012,11.84164,-0.66874,98.47288,0.00E+00,70,-5.38E-02,1
155.512,11.88658,-0.67227,98.46801,0.00E+00,70,-5.63E-02,1
156.012,11.9316,-0.67429,98.46279,0.00E+00,70,-5.79E-02,1
156.512,11.97672,-0.67741,98.45909,0.00E+00,70,-5.86E-02,1
157.012,12.02192,-0.6807,98.45627,0.00E+00,70,-5.86E-02,1
157.512,12.06717,-0.68326,98.45426,0.00E+00,70,-5.80E-02,1
158.012,12.11249,-0.68609,98.45163,0.00E+00,70,-5.71E-02,1
158.512,12.15784,-0.68814,98.4483,0.00E+00,70,-5.61E-02,1
159.012,12.20322,-0.69118,98.44618,0.00E+00,70,-5.55E-02,1
159.512,12.24858,-0.69436,98.44392,0.00E+00,70,-5.56E-02,1
160.012,12.29403,-0.69714,98.44047,0.00E+00,70,-5.65E-02,1
160.512,12.33951,-0.69974,98.43893,0.00E+00,70,-5.86E-02,1
161.012,12.38506,-0.70224,98.43885,0.00E+00,70,-6.19E-02,1
161.512,12.43061,-0.70481,98.43883,0.00E+00,70,-6.63E-02,1
162.012,12.47628,-0.707,98.439,0.00E+00,70,-7.16E-02,1
162.512,12.522,-0.7096,98.43816,0.00E+00,70,-7.75E-02,1
163.012,12.56772,-0.71229,98.43465,0.00E+00,70,-8.36E-02,1
163.512,12.61351,-0.71435,98.42516,0.00E+00,70,-8.93E-02,1
164.012,12.65941,-0.71716,98.41387,0.00E+00,70,-9.44E-02,1
164.512,12.70545,-0.72002,98.41118,0.00E+00,70,-9.85E-02,1
165.012,12.75148,-0.7221,98.40778,0.00E+00,70,-0.10145,1
165.512,12.79759,-0.72501,98.40685,0.00E+00,70,-0.10315,1
166.012,12.84377,-0.72705,98.39685,0.00E+00,70,-0.10374,1
166.512,12.88995,-0.72952,98.38907,0.00E+00,70,-0.10349,1
167.012,12.93606,-0.73253,98.38432,0.00E+00,70,-0.10275,1
167.512,12.98217,-0.73506,98.37986,0.00E+00,70,-0.10192,1
168.012,13.02837,-0.737,98.37499,0.00E+00,70,-0.10143,1
168.512,13.07463,-0.73913,98.37164,0.00E+00,70,-0.10167,1
169.012,13.12095,-0.74109,98.36958,0.00E+00,70,-0.10293,1
169.512,13.16736,-0.74328,98.36723,0.00E+00,70,-0.10541,1
170.012,13.21385,-0.74627,98.36484,0.00E+00,70,-0.10916,1
170.512,13.26039,-0.74912,98.3606,0.00E+00,70,-0.11408,1
171.012,13.30693,-0.75178,98.35327,0.00E+00,70,-0.11998,1
171.512,13.35349,-0.75366,98.3466,0.00E+00,70,-0.12653,1
172.012,13.40013,-0.75679,98.342,0.00E+00,70,-0.13338,1
172.512,13.44682,-0.75894,98.33495,0.00E+00,70,-0.14013,1
173.012,13.49355,-0.76071,98.33051,0.00E+00,70,-0.14637,1
173.512,13.54031,-0.76372,98.32073,0.00E+00,70,-0.1518,1
174.012,13.58718,-0.76618,98.31144,0.00E+00,70,-0.1562,1
174.512,13.63403,-0.7671,98.306,0.00E+00,70,-0.15946,1
175.012,13.68091,-0.76945,98.29609,0.00E+00,70,-0.16164,1
175.512,13.72787,-0.77242,98.28492,0.00E+00,70,-0.16296,1
176.012,13.77487,-0.77418,98.27338,0.00E+00,70,-0.16376,1
176.512,13.82187,-0.77641,98.26451,0.00E+00,70,-0.16445,1
177.012,13.86893,-0.77921,98.26152,0.00E+00,70,-0.16549,1
177.512,13.91604,-0.78093,98.25942,0.00E+00,70,-0.16727,1
178.012,13.96311,-0.78274,98.25387,0.00E+00,70,-0.1701,1
178.512,14.01024,-0.78528,98.24303,0.00E+00,70,-0.17414,1
179.012,14.05744,-0.78702,98.23539,0.00E+00,70,-0.17944,1
179.512,14.10465,-0.78907,98.22827,0.00E+00,70,-0.18587,1
180.012,14.1519,-0.79078,98.21999,0.00E+00,70,-0.19323,1
180.512,14.19927,-0.79349,98.21057,0.00E+00,70,-0.20122,1
181.012,14.24669,-0.7967,98.19872,0.00E+00,70,-0.20951,1
181.512,14.29415,-0.79815,98.19023,0.00E+00,70,-0.21776,1
182.012,14.34165,-0.80085,98.18136,0.00E+00,70,-0.22565,1
182.512,14.38915,-0.80346,98.16856,0.00E+00,70,-0.23294,1
183.012,14.43662,-0.80492,98.15753,0.00E+00,70,-0.23945,1
183.512,14.48407,-0.80703,98.14516,0.00E+00,70,-0.24513,1
184.012,14.53155,-0.8092,98.12717,0.00E+00,70,-0.25001,1
184.512,14.57908,-0.81111,98.11503,0.00E+00,70,-0.25424,1
185.012,14.62671,-0.81283,98.10376,0.00E+00,70,-0.25799,1
185.512,14.67441,-0.8149,98.09292,0.00E+00,70,-0.2615,1
186.012,14.72216,-0.81711,98.08373,0.00E+00,70,-0.26501,1
186.512,14.76993,-0.81923,98.07098,0.00E+00,70,-0.26871,1
187.012,14.81762,-0.82148,98.05735,0.00E+00,70,-0.27278,1
187.512,14.86526,-0.82309,98.04374,0.00E+00,70,-0.27731,1
188.012,14.91289,-0.82475,98.02963,0.00E+00,70,-0.28239,1
188.512,14.96054,-0.82687,98.01393,0.00E+00,70,-0.28799,1
189.012,15.0082,-0.82882,98.00356,0.00E+00,70,-0.29406,1
189.512,15.05594,-0.83059,97.9902,0.00E+00,70,-0.30046,1
190.012,15.10382,-0.83213,97.97719,0.00E+00,70,-0.30698,1
190.512,15.15172,-0.83396,97.96409,0.00E+00,70,-0.31334,1
191.012,15.19968,-0.83615,97.94977,0.00E+00,70,-0.31926,1
191.512,15.24769,-0.83817,97.93083,0.00E+00,70,-0.32447,1
192.012,15.29574,-0.83968,97.90915,0.00E+00,70,-0.3288,1
192.512,15.34379,-0.84225,97.89315,0.00E+00,70,-0.33217,1
193.012,15.39189,-0.84449,97.87797,0.00E+00,70,-0.33467,1
193.512,15.44001,-0.84528,97.86099,0.00E+00,70,-0.33652,1
194.012,15.48819,-0.84815,97.84678,0.00E+00,70,-0.33808,1
194.512,15.53643,-0.8499,97.82822,0.00E+00,70,-0.33976,1
195.012,15.58471,-0.85143,97.81255,0.00E+00,70,-0.34202,1
195.512,15.63305,-0.85333,97.79684,0.00E+00,70,-0.34524,1
196.012,15.68144,-0.85436,97.78018,0.00E+00,70,-0.34969,1
196.512,15.72984,-0.8566,97.76648,0.00E+00,70,-0.35548,1
197.012,15.7782,-0.85924,97.75223,0.00E+00,70,-0.36257,1
197.512,15.82653,-0.86157,97.73531,0.00E+00,70,-0.37074,1
198.012,15.87483,-0.86288,97.71998,0.00E+00,70,-0.37968,1
198.512,15.92312,-0.86412,97.70052,0.00E+00,70,-0.38904,1
199.012,15.97142,-0.86608,97.67576,0.00E+00,70,-0.39849,1
199.512,16.01979,-0.86772,97.65477,0.00E+00,70,-0.40781,1
200.012,16.0683,-0.87025,97.63573,0.00E+00,70,-0.41685,1
200.512,16.11688,-0.87181,97.61652,0.00E+00,70,-0.4256,1
201.012,16.16552,-0.873,97.5938,0.00E+00,70,-0.43415,1
201.512,16.21422,-0.87647,97.57034,0.00E+00,70,-0.4426,1
202.012,16.26293,-0.8789,97.55368,0.00E+00,70,-0.45109,1
202.512,16.31157,-0.88006,97.53212,0.00E+00,70,-0.45967,1
203.012,16.36024,-0.88181,97.51091,0.00E+00,70,-0.46838,1
203.512,16.40893,-0.88457,97.48747,0.00E+00,70,-0.47714,1
204.012,16.45761,-0.88606,97.45778,0.00E+00,70,-0.48584,1
204.512,16.50634,-0.88844,97.43813,0.00E+00,70,-0.49437,1
205.012,16.55518,-0.89104,97.41547,0.00E+00,70,-0.50268,1
205.512,16.60406,-0.89314,97.38742,0.00E+00,70,-0.51072,1
206.012,16.65297,-0.89593,97.36215,0.00E+00,70,-0.51855,1
206.512,16.70196,-0.89678,97.33639,0.00E+00,70,-0.52629,1
207.012,16.75093,-0.89976,97.30727,0.00E+00,70,-0.53405,1
207.512,16.79986,-0.90001,97.28423,0.00E+00,70,-0.54191,1
208.012,16.84876,-0.90305,97.25377,0.00E+00,70,-0.54982,1
208.512,16.89765,-0.90542,97.23415,0.00E+00,70,-0.55761,1
209.012,16.94657,-0.9073,97.21044,0.00E+00,70,-0.56497,1
209.512,16.99559,-0.91057,97.17995,0.00E+00,70,-0.57153,1
210.012,17.04466,-0.91219,97.15324,0.00E+00,70,-0.57688,1
210.512,17.09386,-0.91408,97.11886,0.00E+00,70,-0.58076,1
211.012,17.14315,-0.91685,97.08054,0.00E+00,70,-0.58307,1
211.512,17.19238,-0.91843,97.04868,0.00E+00,70,-0.58395,1
212.012,17.24161,-0.92064,97.02315,0.00E+00,70,-0.58374,1
212.512,17.29083,-0.92355,96.99354,0.00E+00,70,-0.58287,1
213.012,17.34002,-0.92536,96.972,0.00E+00,70,-0.58178,1
213.512,17.38924,-0.92809,96.94585,0.00E+00,70,-0.58081,1
214.012,17.43855,-0.93044,96.92241,0.00E+00,70,-0.58017,1
214.512,17.48783,-0.93249,96.88438,0.00E+00,70,-0.57998,1
215.012,17.5372,-0.93441,96.85922,0.00E+00,70,-0.5803,1
215.512,17.58663,-0.93745,96.82854,0.00E+00,70,-0.58124,1
216.012,17.63604,-0.93929,96.80148,0.00E+00,70,-0.58297,1
216.512,17.68546,-0.9416,96.76034,0.00E+00,70,-0.58576,1
217.012,17.73497,-0.94576,96.73578,0.00E+00,70,-0.58992,1
217.512,17.78443,-0.94708,96.71614,0.00E+00,70,-0.59566,1
218.012,17.83384,-0.95002,96.69159,0.00E+00,70,-0.60303,1
218.512,17.88323,-0.95302,96.66378,0.00E+00,70,-0.61186,1
219.012,17.93263,-0.95508,96.63931,0.00E+00,70,-0.6218,1
219.512,17.98204,-0.95784,96.59996,0.00E+00,70,-0.63232,1
220.012,18.03152,-0.96078,96.56286,0.00E+00,70,-0.64288,1
220.512,18.0811,-0.96283,96.52963,0.00E+00,70,-0.65296,1
221.012,18.13075,-0.96566,96.49948,0.00E+00,70,-0.66215,1
221.512,18.18039,-0.96833,96.46123,0.00E+00,70,-0.6702,1
222.012,18.23002,-0.97153,96.43131,0.00E+00,70,-0.677,1
222.512,18.2796,-0.97439,96.3988,0.00E+00,70,-0.68259,1
223.012,18.32915,-0.97628,96.36982,0.00E+00,70,-0.68712,1
223.512,18.3787,-0.97906,96.32619,0.00E+00,70,-0.69082,1
224.012,18.42831,-0.98208,96.28895,0.00E+00,70,-0.69403,1
224.512,18.47799,-0.98409,96.26033,0.00E+00,70,-0.69714,1
225.012,18.52772,-0.98695,96.21706,0.00E+00,70,-0.70059,1
225.512,18.57753,-0.98987,96.18429,0.00E+00,70,-0.70485,1
226.012,18.62735,-0.99267,96.15788,0.00E+00,70,-0.71027,1
226.512,18.67717,-0.99603,96.12662,0.00E+00,70,-0.71707,1
227.012,18.72692,-0.99817,96.08236,0.00E+00,70,-0.72527,1
227.512,18.7767,-1.00074,96.05228,0.00E+00,70,-0.7347,1
228.012,18.82646,-1.00421,96.02192,0.00E+00,70,-0.74498,1
228.512,18.87619,-1.00776,95.97971,0.00E+00,70,-0.75566,1
229.012,18.92597,-1.01126,95.93986,0.00E+00,70,-0.76631,1
229.512,18.97583,-1.0139,95.89618,0.00E+00,70,-0.77658,1
230.012,19.02568,-1.01663,95.85963,0.00E+00,70,-0.78623,1
230.512,19.07552,-1.01955,95.81818,0.00E+00,70,-0.79526,1
231.012,19.12536,-1.02173,95.7796,0.00E+00,70,-0.80379,1
231.512,19.17517,-1.02511,95.74131,0.00E+00,70,-0.81209,1
232.012,19.22498,-1.02891,95.69441,0.00E+00,70,-0.82043,1
232.512,19.27478,-1.03221,95.65921,0.00E+00,70,-0.82908,1
233.012,19.32461,-1.03529,95.61462,0.00E+00,70,-0.83823,1
233.512,19.37452,-1.03784,95.57805,0.00E+00,70,-0.84801,1
234.012,19.42446,-1.04119,95.54383,0.00E+00,70,-0.85842,1
234.512,19.47438,-1.04471,95.48849,0.00E+00,70,-0.86942,1
235.012,19.52436,-1.0476,95.44725,0.00E+00,70,-0.88093,1
235.512,19.57436,-1.05088,95.39679,0.00E+00,70,-0.89286,1
236.012,19.62432,-1.05443,95.35219,0.00E+00,70,-0.90508,1
236.512,19.67426,-1.05757,95.31962,0.00E+00,70,-0.91748,1
237.012,19.72423,-1.06084,95.27176,0.00E+00,70,-0.92993,1
237.512,19.77418,-1.06389,95.22602,0.00E+00,70,-0.94229,1
238.012,19.82414,-1.06725,95.16951,0.00E+00,70,-0.95446,1
238.512,19.87412,-1.07086,95.11705,0.00E+00,70,-0.9664,1
239.012,19.92411,-1.0743,95.07784,0.00E+00,70,-0.97814,1
239.512,19.97407,-1.07702,95.02667,0.00E+00,70,-0.98978,1
240.012,20.024,-1.07971,94.97479,0.00E+00,70,-1.00147,1
240.512,20.07388,-1.08388,94.92509,0.00E+00,70,-1.01338,1
241.012,20.12377,-1.08678,94.8709,0.00E+00,70,-1.02564,1
241.512,20.17369,-1.0895,94.82674,0.00E+00,70,-1.03832,1
242.012,20.22361,-1.09305,94.78291,0.00E+00,70,-1.05139,1
242.512,20.27355,-1.09616,94.71881,0.00E+00,70,-1.06479,1
243.012,20.32354,-1.09983,94.66401,0.00E+00,70,-1.07848,1
243.512,20.37355,-1.10379,94.6168,0.00E+00,70,-1.09243,1
244.012,20.42358,-1.10653,94.55318,0.00E+00,70,-1.10676,1
244.512,20.4737,-1.10967,94.4973,0.00E+00,70,-1.12172,1
245.012,20.52389,-1.11328,94.44679,0.00E+00,70,-1.13763,1
245.512,20.5741,-1.11648,94.38505,0.00E+00,70,-1.15483,1
246.012,20.6243,-1.11978,94.33027,0.00E+00,70,-1.17356,1
246.512,20.6745,-1.12378,94.27653,0.00E+00,70,-1.19395,1
247.012,20.72463,-1.12761,94.21252,0.00E+00,70,-1.21587,1
247.512,20.7747,-1.13015,94.15499,0.00E+00,70,-1.23899,1
248.012,20.82474,-1.13291,94.09753,0.00E+00,70,-1.26285,1
248.512,20.87482,-1.13685,94.03312,0.00E+00,70,-1.2869,1
249.012,20.92492,-1.14054,93.96446,0.00E+00,70,-1.31058,1
249.512,20.97502,-1.1434,93.89335,0.00E+00,70,-1.33345,1
250.012,21.02518,-1.14705,93.81728,0.00E+00,70,-1.35523,1
250.512,21.07534,-1.15094,93.75051,0.00E+00,70,-1.37578,1
251.012,21.12551,-1.15538,93.68975,0.00E+00,70,-1.39507,1
251.512,21.17569,-1.15853,93.61915,0.00E+00,70,-1.41317,1
252.012,21.22586,-1.16191,93.54783,0.00E+00,70,-1.43013,1
252.512,21.27602,-1.16595,93.46982,0.00E+00,70,-1.44599,1
253.012,21.32621,-1.16928,93.39855,0.00E+00,70,-1.46081,1
253.512,21.37638,-1.17318,93.32389,0.00E+00,70,-1.47466,1
254.012,21.42655,-1.17706,93.24319,0.00E+00,70,-1.48769,1
254.512,21.47676,-1.18024,93.1735,0.00E+00,70,-1.50019,1
255.012,21.52698,-1.18448,93.10133,0.00E+00,70,-1.51251,1
255.512,21.57721,-1.18822,93.01912,0.00E+00,70,-1.52509,1
256.012,21.6274,-1.19097,92.93771,0.00E+00,70,-1.53835,1
256.512,21.67757,-1.19588,92.86251,0.00E+00,70,-1.55262,1
257.012,21.72774,-1.1989,92.79365,0.00E+00,70,-1.56809,1
257.512,21.77788,-1.20235,92.72119,0.00E+00,70,-1.58473,1
258.012,21.82802,-1.20725,92.63853,0.00E+00,70,-1.60231,1
258.512,21.87821,-1.21021,92.55564,0.00E+00,70,-1.62054,1
259.012,21.92842,-1.21415,92.46863,0.00E+00,70,-1.63902,1
259.512,21.97856,-1.21796,92.38782,0.00E+00,70,-1.65741,1
260.012,22.02874,-1.22151,92.302,0.00E+00,70,-1.67555,1
260.512,22.07895,-1.22479,92.21924,0.00E+00,70,-1.6934,1
261.012,22.12919,-1.23013,92.1329,0.00E+00,70,-1.71108,1
261.512,22.17949,-1.2331,92.03936,0.00E+00,70,-1.72879,1
262.012,22.22987,-1.23582,91.96273,0.00E+00,70,-1.74676,1
262.512,22.28024,-1.24066,91.87537,0.00E+00,70,-1.76514,1
263.012,22.33057,-1.24293,91.78273,0.00E+00,70,-1.78398,1
263.512,22.38082,-1.24678,91.69305,0.00E+00,70,-1.80322,1
264.012,22.43098,-1.25127,91.59927,0.00E+00,70,-1.8227,1
264.512,22.48112,-1.25456,91.51295,0.00E+00,70,-1.84226,1
265.012,22.53124,-1.25874,91.42354,0.00E+00,70,-1.86176,1
265.512,22.58132,-1.26225,91.32685,0.00E+00,70,-1.88117,1
266.012,22.6314,-1.26615,91.22045,0.00E+00,70,-1.90063,1
266.512,22.68153,-1.27003,91.13354,0.00E+00,70,-1.92048,1
267.012,22.73166,-1.27433,91.02867,0.00E+00,70,-1.94114,1
267.512,22.78174,-1.27781,90.93411,0.00E+00,70,-1.96303,1
268.012,22.83186,-1.28068,90.84306,0.00E+00,70,-1.98652,1
268.512,22.88205,-1.28532,90.7467,0.00E+00,70,-2.01167,1
269.012,22.93223,-1.28909,90.63843,0.00E+00,70,-2.03819,1
269.512,22.98239,-1.29225,90.5444,0.00E+00,70,-2.06547,1
270.012,23.03262,-1.29588,90.45065,0.00E+00,70,-2.09276,1
270.512,23.08289,-1.29999,90.33947,0.00E+00,70,-2.11923,1
271.012,23.13312,-1.30458,90.22155,0.00E+00,70,-2.14424,1
271.512,23.18334,-1.30697,90.10028,0.00E+00,70,-2.16752,1
272.012,23.23361,-1.31044,89.98267,0.00E+00,70,-2.18923,1
272.512,23.28388,-1.31421,89.88075,0.00E+00,70,-2.20975,1
273.012,23.33414,-1.31755,89.77796,0.00E+00,70,-2.22965,1
273.512,23.38445,-1.32135,89.66314,0.00E+00,70,-2.24943,1
274.012,23.43481,-1.32604,89.55556,0.00E+00,70,-2.26933,1
274.512,23.48514,-1.33007,89.44721,0.00E+00,70,-2.28929,1
275.012,23.53547,-1.3337,89.33142,0.00E+00,70,-2.30908,1
275.512,23.58577,-1.33649,89.20871,0.00E+00,70,-2.3284,1
276.012,23.63599,-1.34051,89.08033,0.00E+00,70,-2.34706,1
276.512,23.68613,-1.34533,88.95557,0.00E+00,70,-2.36508,1
277.012,23.73627,-1.34836,88.8351,0.00E+00,70,-2.3828,1
277.512,23.78643,-1.3523,88.72563,0.00E+00,70,-2.40068,1
278.012,23.83661,-1.35551,88.60987,0.00E+00,70,-2.4192,1
278.512,23.8868,-1.35978,88.49224,0.00E+00,70,-2.43876,1
279.012,23.93708,-1.36285,88.37055,0.00E+00,70,-2.45956,1
279.512,23.98739,-1.36685,88.24456,0.00E+00,70,-2.48158,1
280.012,24.03769,-1.37064,88.11774,0.00E+00,70,-2.50461,1
280.512,24.08799,-1.37424,87.98686,0.00E+00,70,-2.52836,1
281.012,24.13833,-1.37682,87.85213,0.00E+00,70,-2.55257,1
281.512,24.18865,-1.38106,87.73448,0.00E+00,70,-2.57698,1
282.012,24.239,-1.38535,87.6051,0.00E+00,70,-2.60144,1
282.512,24.28934,-1.38821,87.47602,0.00E+00,70,-2.62588,1
283.012,24.33966,-1.39155,87.33801,0.00E+00,70,-2.65034,1
283.512,24.38998,-1.39587,87.20859,0.00E+00,70,-2.67495,1
284.012,24.4403,-1.3986,87.05805,0.00E+00,70,-2.69986,1
284.512,24.49054,-1.40228,86.92711,0.00E+00,70,-2.72523,1
285.012,24.5408,-1.40644,86.79811,0.00E+00,70,-2.75118,1
285.512,24.59108,-1.40969,86.6551,0.00E+00,70,-2.77768,1
286.012,24.64129,-1.41363,86.51749,0.00E+00,70,-2.80449,1
286.512,24.69156,-1.41702,86.38455,0.00E+00,70,-2.83137,1
287.012,24.74189,-1.42102,86.24269,0.00E+00,70,-2.85801,1
287.512,24.79219,-1.42467,86.0923,0.00E+00,70,-2.88416,1
288.012,24.8425,-1.42806,85.93822,0.00E+00,70,-2.90997,1
288.512,24.89288,-1.43158,85.7788,0.00E+00,70,-2.93599,1
289.012,24.94321,-1.43443,85.63282,0.00E+00,70,-2.96304,1
289.512,24.99354,-1.43919,85.49471,0.00E+00,70,-2.99235,1
290.012,25.04392,-1.44262,85.34569,0.00E+00,70,-3.02517,1
290.512,25.09434,-1.44631,85.19518,0.00E+00,70,-3.06243,1
291.012,25.14475,-1.45026,85.04504,0.00E+00,70,-3.10447,1
291.512,25.19518,-1.45266,84.89477,0.00E+00,70,-3.15084,1
292.012,25.24565,-1.45655,84.74142,0.00E+00,70,-3.20012,1
292.512,25.29607,-1.46051,84.57677,0.00E+00,70,-3.24997,1
293.012,25.34646,-1.46417,84.41239,0.00E+00,70,-3.29759,1
293.512,25.39686,-1.46754,84.25338,0.00E+00,70,-3.34023,1
294.012,25.44723,-1.47244,84.08369,0.00E+00,70,-3.37567,1
294.512,25.49754,-1.47478,83.88203,0.00E+00,70,-3.40286,1
295.012,25.54789,-1.47906,83.68788,0.00E+00,70,-3.4223,1
295.512,25.59822,-1.48316,83.49269,0.00E+00,70,-3.43591,1
296.012,25.64859,-1.48506,83.31568,0.00E+00,70,-3.44675,1
296.512,25.69897,-1.48951,83.15274,0.00E+00,70,-3.45829,1
297.012,25.74932,-1.49297,83.00378,0.00E+00,70,-3.47364,1
297.512,25.79961,-1.49629,82.85648,0.00E+00,70,-3.49485,1
298.012,25.84993,-1.50049,82.70033,0.00E+00,70,-3.5226,1
298.512,25.90019,-1.50354,82.53054,0.00E+00,70,-3.55606,1
299.012,25.95044,-1.50725,82.33569,0.00E+00,70,-3.59339,1
299.512,26.00076,-1.51106,82.12348,0.00E+00,70,-3.63236,1
300.012,26.05113,-1.51479,81.93984,0.00E+00,70,-3.67074,1
300.512,26.10144,-1.51816,81.74839,0.00E+00,70,-3.7068,1
301.012,26.15178,-1.51925,81.55755,0.00E+00,70,-3.73982,1
301.512,26.20219,-1.5237,81.37994,0.00E+00,70,-3.76984,1
302.012,26.25255,-1.52709,81.19713,0.00E+00,70,-3.79747,1
302.512,26.30293,-1.53064,81.01299,0.00E+00,70,-3.82381,1
303.012,26.3533,-1.53381,80.80769,0.00E+00,70,-3.85,1
303.512,26.40365,-1.53625,80.57087,0.00E+00,70,-3.87702,1
304.012,26.45392,-1.54009,80.38245,0.00E+00,70,-3.90545,1
304.512,26.50426,-1.54342,80.22383,0.00E+00,70,-3.93563,1
305.012,26.55459,-1.54689,80.06448,0.00E+00,70,-3.96736,1
305.512,26.605,-1.54907,79.86452,0.00E+00,70,-4.00037,1
306.012,26.65539,-1.55131,79.62082,0.00E+00,70,-4.03421,1
306.512,26.70582,-1.55511,79.37536,0.00E+00,70,-4.06873,1
307.012,26.75617,-1.55833,79.17658,0.00E+00,70,-4.10386,1
307.512,26.8065,-1.5613,78.98894,0.00E+00,70,-4.13985,1
308.012,26.85682,-1.5645,78.80339,0.00E+00,70,-4.17693,1
308.512,26.90716,-1.56592,78.59672,0.00E+00,70,-4.21516,1
309.012,26.95754,-1.56965,78.39444,0.00E+00,70,-4.25437,1
309.512,27.00799,-1.57282,78.17396,0.00E+00,70,-4.29416,1
310.012,27.05842,-1.57526,77.9164,0.00E+00,70,-4.33395,1
310.512,27.10883,-1.57774,77.71314,0.00E+00,70,-4.37336,1
311.012,27.15929,-1.58044,77.48818,0.00E+00,70,-4.41229,1
311.512,27.20969,-1.58417,77.26318,0.00E+00,70,-4.45085,1
312.012,27.26005,-1.58738,77.03847,0.00E+00,70,-4.48944,1
312.512,27.3104,-1.58927,76.82022,0.00E+00,70,-4.5285,1
313.012,27.36073,-1.5924,76.59913,0.00E+00,70,-4.5683,1
313.512,27.41105,-1.5949,76.36284,0.00E+00,70,-4.60885,1
314.012,27.4614,-1.5988,76.13648,0.00E+00,70,-4.64983,1
314.512,27.51168,-1.60095,75.90224,0.00E+00,70,-4.69066,1
315.012,27.56204,-1.60403,75.65541,0.00E+00,70,-4.7308,1
315.512,27.6124,-1.60662,75.40841,0.00E+00,70,-4.76969,1
316.012,27.66266,-1.60956,75.16622,0.00E+00,70,-4.80688,1
316.512,27.71295,-1.61204,74.92665,0.00E+00,70,-4.84233,1
317.012,27.76334,-1.61459,74.68655,0.00E+00,70,-4.87617,1
317.512,27.81362,-1.61718,74.4433,0.00E+00,70,-4.90846,1
318.012,27.86387,-1.61906,74.18837,0.00E+00,70,-4.93963,1
318.512,27.91423,-1.6208,73.93543,0.00E+00,70,-4.9702,1
319.012,27.96453,-1.62386,73.68886,0.00E+00,70,-5.00057,1
319.512,28.01481,-1.62688,73.43421,0.00E+00,70,-5.03133,1
320.012,28.06515,-1.62796,73.1793,0.00E+00,70,-5.06311,1
320.512,28.11553,-1.63007,72.9195,0.00E+00,70,-5.09639,1
321.012,28.16588,-1.63347,72.67249,0.00E+00,70,-5.13145,1
321.512,28.21624,-1.6363,72.42102,0.00E+00,70,-5.16844,1
322.012,28.26658,-1.63762,72.15976,0.00E+00,70,-5.20715,1
322.512,28.31695,-1.63973,71.89374,0.00E+00,70,-5.24715,1
323.012,28.36731,-1.64315,71.62454,0.00E+00,70,-5.28778,1
323.512,28.41765,-1.64516,71.36177,0.00E+00,70,-5.32834,1
324.012,28.46796,-1.64711,71.0928,0.00E+00,70,-5.36824,1
324.512,28.51827,-1.64957,70.82246,0.00E+00,70,-5.40714,1
325.012,28.56856,-1.65154,70.54188,0.00E+00,70,-5.44494,1
325.512,28.61885,-1.65391,70.25779,0.00E+00,70,-5.48187,1
326.012,28.66919,-1.65589,69.98456,0.00E+00,70,-5.51833,1
326.512,28.71965,-1.65763,69.70152,0.00E+00,70,-5.5548,1
327.012,28.77017,-1.66003,69.42799,0.00E+00,70,-5.59153,1
327.512,28.82066,-1.66091,69.16487,0.00E+00,70,-5.62852,1
328.012,28.87116,-1.66226,68.87457,0.00E+00,70,-5.66558,1
328.512,28.92159,-1.66502,68.57645,0.00E+00,70,-5.70224,1
329.012,28.9719,-1.66735,68.28529,0.00E+00,70,-5.73796,1
329.512,29.02215,-1.66945,67.99541,0.00E+00,70,-5.77243,1
330.012,29.07243,-1.67129,67.70079,0.00E+00,70,-5.80555,1
330.512,29.12273,-1.67289,67.41054,0.00E+00,70,-5.83748,1
331.012,29.1731,-1.67555,67.11716,0.00E+00,70,-5.86874,1
331.512,29.22354,-1.67756,66.81502,0.00E+00,70,-5.89998,1
332.012,29.27397,-1.68002,66.5156,0.00E+00,70,-5.93189,1
332.512,29.32439,-1.68192,66.21605,0.00E+00,70,-5.96504,1
333.012,29.37479,-1.68317,65.92231,0.00E+00,70,-5.9997,1
333.512,29.42507,-1.68471,65.62757,0.00E+00,70,-6.0357,1
334.012,29.47526,-1.68621,65.32759,0.00E+00,70,-6.07261,1
334.512,29.52541,-1.68877,65.02706,0.00E+00,70,-6.10976,1
335.012,29.57551,-1.69001,64.7069,0.00E+00,70,-6.14637,1
335.512,29.62564,-1.69048,64.38662,0.00E+00,70,-6.18187,1
336.012,29.67591,-1.69197,64.07843,0.00E+00,70,-6.21589,1
336.512,29.72627,-1.69316,63.75994,0.00E+00,70,-6.24834,1
337.012,29.77669,-1.69425,63.44922,0.00E+00,70,-6.27942,1
337.512,29.82711,-1.69575,63.13211,0.00E+00,70,-6.30964,1
338.012,29.87746,-1.69708,62.81298,0.00E+00,70,-6.33967,1
338.512,29.92771,-1.69751,62.5004,0.00E+00,70,-6.3703,1
339.012,29.97792,-1.69773,62.17431,0.00E+00,70,-6.40235,1
339.512,30.0282,-1.69883,61.84366,0.00E+00,70,-6.43657,1
340.012,30.0785,-1.69993,61.52761,0.00E+00,70,-6.47346,1
340.512,30.12887,-1.7009,61.20857,0.00E+00,70,-6.51333,1
341.012,30.17928,-1.70119,60.88177,0.00E+00,70,-6.55617,1
341.512,30.2297,-1.70223,60.55082,0.00E+00,70,-6.60163,1
342.012,30.28009,-1.70201,60.22052,0.00E+00,70,-6.64907,1
342.512,30.33048,-1.70175,59.88659,0.00E+00,70,-6.69775,1
343.012,30.38084,-1.7024,59.54188,0.00E+00,70,-6.74682,1
343.512,30.4312,-1.70282,59.20104,0.00E+00,70,-6.79557,1
344.012,30.48155,-1.70284,58.8537,0.00E+00,70,-6.84349,1
344.512,30.53188,-1.70222,58.50901,0.00E+00,70,-6.89034,1
345.012,30.58221,-1.70258,58.15475,0.00E+00,70,-6.93626,1
345.512,30.63256,-1.70241,57.80769,0.00E+00,70,-6.98163,1
346.012,30.68287,-1.70202,57.45039,0.00E+00,70,-7.02691,1
346.512,30.73314,-1.70121,57.09617,0.00E+00,70,-7.07274,1
347.012,30.78348,-1.70039,56.75687,0.00E+00,70,-7.11978,1
347.512,30.83385,-1.69963,56.39614,0.00E+00,70,-7.16855,1
348.012,30.88423,-1.69963,56.0223,0.00E+00,70,-7.21946,1
348.512,30.93471,-1.69784,55.65871,0.00E+00,70,-7.27305,1
349.012,30.98527,-1.69646,55.29433,0.00E+00,70,-7.32964,1
349.512,31.03577,-1.69559,54.91954,0.00E+00,70,-7.38935,1
350.012,31.08625,-1.69432,54.55226,0.00E+00,70,-7.45236,1
350.512,31.13669,-1.6921,54.17807,0.00E+00,70,-7.51858,1
351.012,31.18701,-1.68995,53.80277,0.00E+00,70,-7.5876,1
351.512,31.23727,-1.68747,53.41685,0.00E+00,70,-7.65903,1
352.012,31.28756,-1.68596,53.04017,0.00E+00,70,-7.73237,1
352.512,31.3379,-1.68507,52.64559,0.00E+00,70,-7.80695,1
353.012,31.3883,-1.68254,52.24626,0.00E+00,70,-7.88228,1
353.512,31.43884,-1.68004,51.84129,0.00E+00,70,-7.95801,1
354.012,31.48946,-1.67611,51.42741,0.00E+00,70,-8.03394,1
354.512,31.54003,-1.67434,51.02171,0.00E+00,70,-8.10987,1
355.012,31.59049,-1.67084,50.62465,0.00E+00,70,-8.18587,1
355.512,31.64089,-1.66833,50.21076,0.00E+00,70,-8.2622,1
356.012,31.69123,-1.6649,49.79331,0.00E+00,70,-8.33902,1
356.512,31.74149,-1.66206,49.36859,0.00E+00,70,-8.41631,1
357.012,31.79182,-1.65904,48.9366,0.00E+00,70,-8.4942,1
357.512,31.84225,-1.65582,48.51324,0.00E+00,70,-8.57254,1
358.012,31.8927,-1.6528,48.07695,0.00E+00,70,-8.65088,1
358.512,31.94315,-1.64872,47.63656,0.00E+00,70,-8.72878,1
359.012,31.99362,-1.64748,47.19955,0.00E+00,70,-8.80588,1
359.512,32.04403,-1.64337,46.75482,0.00E+00,70,-8.88169,1
360.012,32.09436,-1.6389,46.3078,0.00E+00,70,-8.95596,1
360.512,32.14466,-1.6346,45.84949,0.00E+00,70,-9.02872,1
361.012,32.19496,-1.6316,45.37141,0.00E+00,70,-9.10016,1
361.512,32.24529,-1.62528,44.92361,0.00E+00,70,-9.17059,1
362.012,32.29565,-1.62178,44.46131,0.00E+00,70,-9.24029,1
362.512,32.34612,-1.61656,43.9962,0.00E+00,70,-9.30949,1
363.012,32.39666,-1.6125,43.52572,0.00E+00,70,-9.37796,1
363.512,32.44716,-1.6084,43.06035,0.00E+00,70,-9.44505,1
364.012,32.49762,-1.6025,42.58298,0.00E+00,70,-9.50982,1
364.512,32.54799,-1.59783,42.08753,0.00E+00,70,-9.57109,1
365.012,32.59829,-1.59415,41.608,0.00E+00,70,-9.62765,1
365.512,32.6485,-1.58863,41.10704,0.00E+00,70,-9.67833,1
366.012,32.69875,-1.58519,40.61889,0.00E+00,70,-9.72225,1
366.512,32.74896,-1.57925,40.12281,0.00E+00,70,-9.75853,1
367.012,32.79928,-1.57424,39.63415,0.00E+00,70,-9.78666,1
367.512,32.84959,-1.57156,39.13568,0.00E+00,70,-9.80605,1
368.012,32.89993,-1.56719,38.64192,0.00E+00,70,-9.81628,1
368.512,32.95024,-1.56271,38.13351,0.00E+00,70,-9.81699,1
369.012,33.00069,-1.55919,37.64483,0.00E+00,70,-9.80784,1
369.512,33.05108,-1.55717,37.13549,0.00E+00,70,-9.78861,1
370.012,33.10148,-1.55292,36.63497,0.00E+00,70,-9.75915,1
370.512,33.1519,-1.54859,36.13311,0.00E+00,70,-9.71931,1
371.012,33.20231,-1.54665,35.64536,0.00E+00,70,-9.66892,1
371.512,33.2526,-1.54481,35.15928,0.00E+00,70,-9.60777,1
372.012,33.30286,-1.54283,34.67303,0.00E+00,70,-9.53516,1
372.512,33.35309,-1.54156,34.19789,0.00E+00,70,-9.4502,1
373.012,33.40338,-1.54064,33.71861,0.00E+00,70,-9.35163,1
373.512,33.45368,-1.53927,33.24324,0.00E+00,70,-9.23834,1
374.012,33.50404,-1.54069,32.75491,0.00E+00,70,-9.10914,1
374.512,33.55449,-1.54034,32.29004,0.00E+00,70,-8.96324,1
375.012,33.60501,-1.5421,31.82995,0.00E+00,70,-8.8003,1
375.512,33.65544,-1.54291,31.38917,0.00E+00,70,-8.62104,1
376.012,33.70589,-1.54539,30.94381,0.00E+00,70,-8.42557,1
376.512,33.75629,-1.5476,30.52554,0.00E+00,70,-8.21499,1
377.012,33.80667,-1.55066,30.10419,0.00E+00,70,-7.99009,1
377.512,33.857,-1.55498,29.70962,0.00E+00,70,-7.75189,1
378.012,33.90737,-1.56063,29.32019,0.00E+00,70,-7.50101,1
378.512,33.95767,-1.5639,28.93193,0.00E+00,70,-7.23886,1
379.012,34.00798,-1.56931,28.5669,0.00E+00,70,-6.96591,1
379.512,34.05819,-1.57745,28.22549,0.00E+00,70,-6.68362,1
380.012,34.10833,-1.58342,27.89097,0.00E+00,70,-6.39275,1
380.512,34.15841,-1.59051,27.58024,0.00E+00,70,-6.09408,1
381.012,34.20851,-1.59912,27.27896,0.00E+00,70,-5.78823,1
381.512,34.25861,-1.60646,27.00139,0.00E+00,70,-5.47673,1
382.012,34.30881,-1.6141,26.7314,0.00E+00,70,-5.16087,1
382.512,34.35904,-1.62427,26.45185,0.00E+00,70,-4.84358,1
383.012,34.40933,-1.63193,26.2184,0.00E+00,70,-4.52785,1
383.512,34.45959,-1.6422,25.99649,0.00E+00,70,-4.21781,1
384.012,34.50978,-1.65034,25.80571,0.00E+00,70,-3.91724,1
384.512,34.55989,-1.66022,25.63454,0.00E+00,70,-3.62941,1
385.012,34.61001,-1.6688,25.4823,0.00E+00,70,-3.35633,1
385.512,34.66006,-1.67855,25.33642,0.00E+00,70,-3.09987,1
386.012,34.71012,-1.68791,25.20049,0.00E+00,70,-2.85999,1
386.512,34.7602,-1.6956,25.06615,0.00E+00,70,-2.63627,1
387.012,34.81025,-1.70445,24.94281,0.00E+00,70,-2.42806,1
387.512,34.86029,-1.71252,24.82951,0.00E+00,70,-2.23434,1
388.012,34.91036,-1.71982,24.72476,0.00E+00,70,-2.05432,1
388.512,34.96039,-1.72705,24.62247,0.00E+00,70,-1.8882,1
389.012,35.01043,-1.73384,24.53813,0.00E+00,70,-1.73615,1
389.512,35.06056,-1.74131,24.47243,0.00E+00,70,-1.59876,1
390.012,35.11065,-1.74639,24.39914,0.00E+00,70,-1.47709,1
390.512,35.16072,-1.75105,24.34969,0.00E+00,70,-1.37153,1
391.012,35.21085,-1.7571,24.298,0.00E+00,70,-1.28185,1
391.512,35.26098,-1.76054,24.24517,0.00E+00,70,-1.20744,1
392.012,35.31106,-1.76538,24.18848,0.00E+00,70,-1.14699,1
392.512,35.36117,-1.76823,24.13636,0.00E+00,70,-1.09854,1
393.012,35.4113,-1.77062,24.0902,0.00E+00,70,-1.06002,1
393.512,35.46141,-1.77268,24.03554,0.00E+00,70,-1.02933,1
394.012,35.51148,-1.77545,23.98774,0.00E+00,70,-1.00455,1
394.512,35.56154,-1.77723,23.93752,0.00E+00,70,-0.98401,1
395.012,35.61158,-1.77898,23.88842,0.00E+00,70,-0.9665,1
395.512,35.66158,-1.7807,23.84138,0.00E+00,70,-0.95118,1
396.012,35.71158,-1.78266,23.79442,0.00E+00,70,-0.93755,1
396.512,35.76164,-1.78365,23.74841,0.00E+00,70,-0.92539,1
397.012,35.8117,-1.78465,23.70299,0.00E+00,70,-0.91464,1
397.512,35.86181,-1.78615,23.6569,0.00E+00,70,-0.90531,1
398.012,35.91196,-1.78816,23.61059,0.00E+00,70,-0.89736,1
398.512,35.96212,-1.79048,23.5729,0.00E+00,70,-0.89064,1
399.012,36.01228,-1.79239,23.52688,0.00E+00,70,-0.88486,1
399.512,36.0625,-1.79319,23.48767,0.00E+00,70,-0.87958,1
400.012,36.11271,-1.79632,23.44896,0.00E+00,70,-0.87433,1
400.512,36.16291,-1.79738,23.39218,0.00E+00,70,-0.86863,1
401.012,36.21311,-1.79906,23.34468,0.00E+00,70,-0.86212,1
401.512,36.26332,-1.80184,23.30509,0.00E+00,70,-0.85464,1
402.012,36.31347,-1.80269,23.25964,0.00E+00,70,-0.84625,1
402.512,36.36362,-1.80571,23.21624,0.00E+00,70,-0.83721,1
403.012,36.41373,-1.80722,23.17955,0.00E+00,70,-0.82792,1
403.512,36.46385,-1.80945,23.13684,0.00E+00,70,-0.81883,1
404.012,36.51393,-1.81173,23.09536,0.00E+00,70,-0.8104,1
404.512,36.56399,-1.8127,23.05494,0.00E+00,70,-0.80293,1
405.012,36.61401,-1.81525,23.02003,0.00E+00,70,-0.79659,1
405.512,36.66406,-1.8174,22.97843,0.00E+00,70,-0.79137,1
406.012,36.71407,-1.8199,22.94075,0.00E+00,70,-0.78709,1
406.512,36.76411,-1.82243,22.91012,0.00E+00,70,-0.78348,1
407.012,36.81422,-1.82319,22.86412,0.00E+00,70,-0.7802,1
407.512,36.8644,-1.82604,22.81659,0.00E+00,70,-0.77697,1
408.012,36.91463,-1.82885,22.78581,0.00E+00,70,-0.77357,1
408.512,36.96492,-1.82977,22.74496,0.00E+00,70,-0.7699,1
409.012,37.01519,-1.831,22.69898,0.00E+00,70,-0.76602,1
409.512,37.0654,-1.83432,22.67171,0.00E+00,70,-0.76207,1
410.012,37.11561,-1.8365,22.6291,0.00E+00,70,-0.75822,1
410.512,37.16576,-1.83904,22.58488,0.00E+00,70,-0.75468,1
411.012,37.21586,-1.84004,22.55706,0.00E+00,70,-0.7516,1
411.512,37.26603,-1.84145,22.51799,0.00E+00,70,-0.74907,1
412.012,37.31622,-1.84372,22.48341,0.00E+00,70,-0.74716,1
412.512,37.36636,-1.8467,22.44505,0.00E+00,70,-0.74588,1
413.012,37.41653,-1.8479,22.40515,0.00E+00,70,-0.74524,1
413.512,37.46675,-1.84854,22.36086,0.00E+00,70,-0.74523,1
414.012,37.51697,-1.8513,22.3322,0.00E+00,70,-0.74581,1
414.512,37.56719,-1.85306,22.29296,0.00E+00,70,-0.74689,1
415.012,37.61746,-1.85433,22.25837,0.00E+00,70,-0.74828,1
415.512,37.66769,-1.85562,22.22064,0.00E+00,70,-0.74968,1
416.012,37.71782,-1.8573,22.19204,0.00E+00,70,-0.75071,1
416.512,37.76786,-1.85962,22.14452,0.00E+00,70,-0.75096,1
417.012,37.81784,-1.86088,22.09993,0.00E+00,70,-0.75001,1
417.512,37.86782,-1.86218,22.06637,0.00E+00,70,-0.74757,1
418.012,37.91785,-1.86341,22.02851,0.00E+00,70,-0.74345,1
418.512,37.968,-1.86471,21.98708,0.00E+00,70,-0.73763,1
419.012,38.01826,-1.86627,21.9535,0.00E+00,70,-0.7303,1
419.512,38.06853,-1.86716,21.916,0.00E+00,70,-0.72186,1
420.012,38.11877,-1.86935,21.87615,0.00E+00,70,-0.71282,1
420.512,38.16901,-1.8718,21.84171,0.00E+00,70,-0.70379,1
421.012,38.21916,-1.87196,21.80307,0.00E+00,70,-0.69541,1
421.512,38.26925,-1.87215,21.77121,0.00E+00,70,-0.68822,1
422.012,38.3194,-1.87344,21.7428,0.00E+00,70,-0.68262,1
422.512,38.36956,-1.87462,21.71488,0.00E+00,70,-0.67886,1
423.012,38.41964,-1.87485,21.676,0.00E+00,70,-0.67695,1
423.512,38.4697,-1.87735,21.64057,0.00E+00,70,-0.6767,1
424.012,38.51975,-1.87849,21.61753,0.00E+00,70,-0.67776,1
424.512,38.56979,-1.87921,21.58255,0.00E+00,70,-0.67971,1
425.012,38.61985,-1.87907,21.53902,0.00E+00,70,-0.68212,1
425.512,38.66991,-1.87985,21.50039,0.00E+00,70,-0.6846,1
426.012,38.72004,-1.88121,21.47701,0.00E+00,70,-0.68682,1
426.512,38.77022,-1.88225,21.43968,0.00E+00,70,-0.68853,1
427.012,38.82033,-1.88271,21.40337,0.00E+00,70,-0.68955,1
427.512,38.87041,-1.88168,21.3669,0.00E+00,70,-0.68975,1
428.012,38.92051,-1.88152,21.33759,0.00E+00,70,-0.68908,1
428.512,38.97057,-1.88168,21.29675,0.00E+00,70,-0.68757,1
429.012,39.02061,-1.88241,21.266,0.00E+00,70,-0.68534,1
429.512,39.07071,-1.88275,21.22633,0.00E+00,70,-0.68262,1
430.012,39.12087,-1.88265,21.19273,0.00E+00,70,-0.67976,1
430.512,39.17107,-1.88202,21.15853,0.00E+00,70,-0.67716,1
431.012,39.2213,-1.88202,21.11847,0.00E+00,70,-0.67521,1
431.512,39.27155,-1.88035,21.09559,0.00E+00,70,-0.6742,1
432.012,39.32174,-1.88012,21.06702,0.00E+00,70,-0.67423,1
432.512,39.37189,-1.88046,21.03204,0.00E+00,70,-0.67519,1
433.012,39.42197,-1.87836,20.99598,0.00E+00,70,-0.67675,1
433.512,39.47198,-1.87802,20.9642,0.00E+00,70,-0.67841,1
434.012,39.52195,-1.87786,20.9271,0.00E+00,70,-0.67962,1
434.512,39.57193,-1.87619,20.89132,0.00E+00,70,-0.67983,1
435.012,39.62193,-1.87489,20.8569,0.00E+00,70,-0.67864,1
435.512,39.67195,-1.87369,20.82651,0.00E+00,70,-0.67581,1
436.012,39.72197,-1.87166,20.78176,0.00E+00,70,-0.67128,1
436.512,39.77203,-1.87121,20.74662,0.00E+00,70,-0.66519,1
437.012,39.82208,-1.87034,20.71786,0.00E+00,70,-0.65779,1
437.512,39.87207,-1.86672,20.68571,0.00E+00,70,-0.64943,1
438.012,39.92206,-1.86488,20.65521,0.00E+00,70,-0.64044,1
438.512,39.97203,-1.86462,20.6215,0.00E+00,70,-0.63118,1
439.012,40.02195,-1.86201,20.59196,0.00E+00,70,-0.62196,1
439.512,40.07186,-1.85978,20.55856,0.00E+00,70,-0.61311,1
440.012,40.12177,-1.85644,20.52806,0.00E+00,70,-0.60492,1
440.512,40.17167,-1.85415,20.49781,0.00E+00,70,-0.59773,1
441.012,40.22161,-1.85149,20.46963,0.00E+00,70,-0.59182,1
441.512,40.2715,-1.84877,20.44177,0.00E+00,70,-0.58745,1
442.012,40.32141,-1.84466,20.41641,0.00E+00,70,-0.58472,1
442.512,40.37132,-1.84172,20.38605,0.00E+00,70,-0.58361,1
443.012,40.42125,-1.83909,20.35964,0.00E+00,70,-0.58387,1
443.512,40.47118,-1.83409,20.3333,0.00E+00,70,-0.58506,1
444.012,40.52113,-1.83087,20.30306,0.00E+00,70,-0.58658,1
444.512,40.57106,-1.82837,20.27533,0.00E+00,70,-0.58774,1
445.012,40.62095,-1.8242,20.24209,0.00E+00,70,-0.58785,1
445.512,40.67078,-1.81973,20.21147,0.00E+00,70,-0.58638,1
446.012,40.72056,-1.81539,20.1798,0.00E+00,70,-0.58301,1
446.512,40.77032,-1.81085,20.14994,0.00E+00,70,-0.57769,1
447.012,40.82008,-1.80677,20.11602,0.00E+00,70,-0.57063,1
447.512,40.86988,-1.801,20.08111,0.00E+00,70,-0.56228,1
448.012,40.91969,-1.79637,20.06111,0.00E+00,70,-0.55326,1
448.512,40.96949,-1.79221,20.03484,0.00E+00,70,-0.54424,1
449.012,41.01928,-1.78435,20.0128,0.00E+00,70,-0.53584,1
449.512,41.06908,-1.77768,19.98833,0.00E+00,70,-0.52859,1
450.012,41.11884,-1.77212,19.95813,0.00E+00,70,-0.52288,1
450.512,41.16859,-1.76524,19.92756,0.00E+00,70,-0.51891,1
451.012,41.21837,-1.75883,19.91241,0.00E+00,70,-0.51677,1
451.512,41.26812,-1.75278,19.88429,0.00E+00,70,-0.51637,1
452.012,41.3178,-1.74657,19.86294,0.00E+00,70,-0.51751,1
452.512,41.36745,-1.74042,19.83415,0.00E+00,70,-0.51983,1
453.012,41.41707,-1.73295,19.80972,0.00E+00,70,-0.5229,1
453.512,41.46667,-1.72557,19.78759,0.00E+00,70,-0.5262,1
454.012,41.51633,-1.71975,19.75914,0.00E+00,70,-0.52922,1
454.512,41.56606,-1.71298,19.73139,0.00E+00,70,-0.53149,1
455.012,41.61585,-1.70654,19.70618,0.00E+00,70,-0.53264,1
455.512,41.66574,-1.69934,19.67245,0.00E+00,70,-0.53245,1
456.012,41.7156,-1.69249,19.63875,0.00E+00,70,-0.53094,1
456.512,41.7654,-1.68531,19.62124,0.00E+00,70,-0.52827,1
457.012,41.81518,-1.67813,19.5926,0.00E+00,70,-0.52476,1
457.512,41.86493,-1.67177,19.56747,0.00E+00,70,-0.52083,1
458.012,41.91464,-1.66403,19.54576,0.00E+00,70,-0.51688,1
458.512,41.96441,-1.65632,19.5158,0.00E+00,70,-0.51323,1
459.012,42.01431,-1.64924,19.48107,0.00E+00,70,-0.51006,1
459.512,42.06426,-1.64138,19.46941,0.00E+00,70,-0.50736,1
460.012,42.11426,-1.63352,19.44563,0.00E+00,70,-0.50493,1
460.512,42.16429,-1.62698,19.42183,0.00E+00,70,-0.5024,1
461.012,42.21432,-1.61799,19.3966,0.00E+00,70,-0.49927,1
461.512,42.26422,-1.61089,19.37161,0.00E+00,70,-0.49508,1
462.012,42.31409,-1.60364,19.33525,0.00E+00,70,-0.48947,1
462.512,42.36391,-1.59624,19.3089,0.00E+00,70,-0.48228,1
463.012,42.41369,-1.58946,19.28385,0.00E+00,70,-0.47359,1
463.512,42.46345,-1.58294,19.26707,0.00E+00,70,-0.46373,1
464.012,42.51332,-1.57391,19.24416,0.00E+00,70,-0.45321,1
464.512,42.56316,-1.56821,19.21799,0.00E+00,70,-0.4427,1
465.012,42.61304,-1.5606,19.19403,0.00E+00,70,-0.43287,1
465.512,42.6629,-1.5516,19.17426,0.00E+00,70,-0.42432,1
466.012,42.71272,-1.54487,19.15915,0.00E+00,70,-0.4175,1
466.512,42.76249,-1.5375,19.14321,0.00E+00,70,-0.41268,1
467.012,42.81226,-1.52919,19.12549,0.00E+00,70,-0.40992,1
467.512,42.86204,-1.52303,19.10482,0.00E+00,70,-0.40907,1
468.012,42.91189,-1.51465,19.07549,0.00E+00,70,-0.40987,1
468.512,42.96177,-1.5069,19.0614,0.00E+00,70,-0.41189,1
469.012,43.0116,-1.49868,19.04388,0.00E+00,70,-0.41464,1
469.512,43.06144,-1.49166,19.02243,0.00E+00,70,-0.41758,1
470.012,43.11124,-1.48277,19.00179,0.00E+00,70,-0.42019,1
470.512,43.16096,-1.47481,18.98189,0.00E+00,70,-0.42199,1
471.012,43.21064,-1.46594,18.95856,0.00E+00,70,-0.42264,1
471.512,43.26038,-1.4594,18.93096,0.00E+00,70,-0.42197,1
472.012,43.3101,-1.45161,18.90626,0.00E+00,70,-0.41995,1
472.512,43.35982,-1.444,18.88922,0.00E+00,70,-0.41674,1
473.012,43.40955,-1.43535,18.87137,0.00E+00,70,-0.41261,1
473.512,43.45932,-1.42729,18.84568,0.00E+00,70,-0.40791,1
474.012,43.5091,-1.41895,18.82805,0.00E+00,70,-0.40293,1
474.512,43.55894,-1.4117,18.80901,0.00E+00,70,-0.3979,1
475.012,43.60882,-1.404,18.78944,0.00E+00,70,-0.39292,1
475.512,43.6587,-1.39658,18.77254,0.00E+00,70,-0.38794,1
476.012,43.7086,-1.38808,18.75426,0.00E+00,70,-0.38282,1
476.512,43.75846,-1.3808,18.7343,0.00E+00,70,-0.37738,1
477.012,43.8083,-1.37321,18.71605,0.00E+00,70,-0.37145,1
477.512,43.85813,-1.36422,18.68628,0.00E+00,70,-0.36496,1
478.012,43.908,-1.35569,18.67364,0.00E+00,70,-0.35802,1
478.512,43.95788,-1.348,18.65633,0.00E+00,70,-0.35088,1
479.012,44.00785,-1.33976,18.64208,0.00E+00,70,-0.34392,1
479.512,44.05777,-1.33087,18.62086,0.00E+00,70,-0.33765,1
480.012,44.10767,-1.32278,18.60559,0.00E+00,70,-0.33253,1
480.512,44.15755,-1.31353,18.59014,0.00E+00,70,-0.32894,1
481.012,44.2074,-1.30502,18.57355,0.00E+00,70,-0.32706,1
481.512,44.2572,-1.2976,18.56407,0.00E+00,70,-0.32686,1
482.012,44.30703,-1.28964,18.55275,0.00E+00,70,-0.32806,1
482.512,44.35691,-1.28,18.53965,0.00E+00,70,-0.33019,1
483.012,44.40682,-1.27181,18.51709,0.00E+00,70,-0.33267,1
483.512,44.45673,-1.26245,18.49235,0.00E+00,70,-0.33496,1
484.012,44.50661,-1.25524,18.48072,0.00E+00,70,-0.33661,1
484.512,44.55649,-1.24745,18.46342,0.00E+00,70,-0.33739,1
485.012,44.60635,-1.23792,18.44118,0.00E+00,70,-0.33732,1
485.512,44.65616,-1.22728,18.42309,0.00E+00,70,-0.33658,1
486.012,44.70599,-1.21982,18.40737,0.00E+00,70,-0.3355,1
486.512,44.75587,-1.21041,18.39364,0.00E+00,70,-0.33444,1
487.012,44.80578,-1.20305,18.37741,0.00E+00,70,-0.33368,1
487.512,44.85573,-1.19344,18.36281,0.00E+00,70,-0.33337,1
488.012,44.90569,-1.18376,18.35071,0.00E+00,70,-0.33348,1
488.512,44.95565,-1.17545,18.33412,0.00E+00,70,-0.3338,1
489.012,45.00558,-1.16645,18.30622,0.00E+00,70,-0.33401,1
489.512,45.05547,-1.15833,18.29493,0.00E+00,70,-0.33374,1
490.012,45.1053,-1.14969,18.28067,0.00E+00,70,-0.33266,1
490.512,45.15512,-1.13953,18.26318,0.00E+00,70,-0.33054,1
491.012,45.20493,-1.13174,18.24448,0.00E+00,70,-0.32728,1
491.512,45.25474,-1.12241,18.22472,0.00E+00,70,-0.32298,1
492.012,45.30454,-1.11368,18.20625,0.00E+00,70,-0.31787,1
492.512,45.35441,-1.10502,18.18764,0.00E+00,70,-0.31232,1
493.012,45.40433,-1.0969,18.17389,0.00E+00,70,-0.30675,1
493.512,45.45428,-1.08772,18.17132,0.00E+00,70,-0.30159,1
494.012,45.50432,-1.0772,18.15354,0.00E+00,70,-0.29722,1
494.512,45.55443,-1.06916,18.12964,0.00E+00,70,-0.29392,1
495.012,45.60451,-1.06075,18.1228,0.00E+00,70,-0.29192,1
495.512,45.65459,-1.05236,18.10965,0.00E+00,70,-0.29134,1
496.012,45.70466,-1.04421,18.09334,0.00E+00,70,-0.2923,1
496.512,45.75468,-1.03467,18.07918,0.00E+00,70,-0.2949,1
497.012,45.80463,-1.02605,18.06986,0.00E+00,70,-0.29926,1
497.512,45.8546,-1.01873,18.04841,0.00E+00,70,-0.30548,1
498.012,45.90456,-1.00958,18.03433,0.00E+00,70,-0.31365,1
498.512,45.95452,-1.00057,18.02295,0.00E+00,70,-0.32372,1
499.012,46.00448,-0.99326,18.00795,0.00E+00,70,-0.33548,1
499.512,46.0545,-0.98439,17.99437,0.00E+00,70,-0.34852,1
500.012,46.10451,-0.9763,17.9808,0.00E+00,70,-0.36211,1
500.512,46.1545,-0.96752,17.96186,0.00E+00,70,-0.37527,1
501.012,46.20452,-0.95841,17.92886,0.00E+00,70,-0.38687,1
501.512,46.25455,-0.95233,17.91649,0.00E+00,70,-0.3957,1
502.012,46.30455,-0.94295,17.90201,0.00E+00,70,-0.40066,1
502.512,46.35457,-0.93601,17.87742,0.00E+00,70,-0.40096,1
503.012,46.4046,-0.92675,17.84485,0.00E+00,70,-0.39626,1
503.512,46.45457,-0.91973,17.81411,0.00E+00,70,-0.38679,1
504.012,46.50455,-0.91063,17.78739,0.00E+00,70,-0.3733,1
504.512,46.55453,-0.90328,17.76965,0.00E+00,70,-0.357,1
505.012,46.60451,-0.89471,17.75876,0.00E+00,70,-0.33931,1
505.512,46.65452,-0.8874,17.74741,0.00E+00,70,-0.32164,1
506.012,46.7046,-0.8806,17.73504,0.00E+00,70,-0.30512,1
506.512,46.75466,-0.8717,17.72381,0.00E+00,70,-0.29056,1
507.012,46.80479,-0.86478,17.7114,0.00E+00,70,-0.27819,1
507.512,46.85494,-0.85703,17.70015,0.00E+00,70,-0.26785,1
508.012,46.90509,-0.84877,17.6861,0.00E+00,70,-0.25907,1
508.512,46.95524,-0.84209,17.67153,0.00E+00,70,-0.25129,1
509.012,47.00545,-0.83501,17.66009,0.00E+00,70,-0.24397,1
509.512,47.05564,-0.82786,17.64369,0.00E+00,70,-0.23683,1
510.012,47.10584,-0.82029,17.63047,0.00E+00,70,-0.22986,1
510.512,47.15604,-0.8133,17.61918,0.00E+00,70,-0.22329,1
511.012,47.2062,-0.80726,17.60501,0.00E+00,70,-0.21751,1
511.512,47.25633,-0.79921,17.5943,0.00E+00,70,-0.21295,1
512.012,47.30647,-0.79425,17.597,0.00E+00,70,-0.20994,1
512.512,47.35657,-0.78689,17.58938,0.00E+00,70,-0.20862,1
513.012,47.40668,-0.78102,17.57839,0.00E+00,70,-0.2089,1
513.512,47.45682,-0.77453,17.56782,0.00E+00,70,-0.21051,1
514.012,47.50698,-0.76959,17.55148,0.00E+00,70,-0.21305,1
514.512,47.55714,-0.76252,17.53979,0.00E+00,70,-0.2161,1
515.012,47.60739,-0.75686,17.53128,0.00E+00,70,-0.21928,1
515.512,47.65766,-0.7517,17.52222,0.00E+00,70,-0.22233,1
516.012,47.70795,-0.74485,17.51076,0.00E+00,70,-0.22512,1
516.512,47.75827,-0.74067,17.4978,0.00E+00,70,-0.22764,1
517.012,47.80864,-0.73474,17.481,0.00E+00,70,-0.2299,1
517.512,47.85896,-0.72953,17.46792,0.00E+00,70,-0.23194,1
518.012,47.90926,-0.72571,17.46447,0.00E+00,70,-0.2337,1
518.512,47.95954,-0.7192,17.45439,0.00E+00,70,-0.23505,1
519.012,48.00979,-0.71527,17.44223,0.00E+00,70,-0.23573,1
519.512,48.05998,-0.71063,17.43012,0.00E+00,70,-0.23546,1
520.012,48.11018,-0.70616,17.41218,0.00E+00,70,-0.23397,1
520.512,48.16044,-0.70276,17.39672,0.00E+00,70,-0.23111,1
521.012,48.21074,-0.69858,17.38727,0.00E+00,70,-0.22689,1
521.512,48.26103,-0.69366,17.37918,0.00E+00,70,-0.22159,1
522.012,48.31133,-0.69035,17.36111,0.00E+00,70,-0.21567,1
522.512,48.36164,-0.68678,17.34648,0.00E+00,70,-0.20975,1
523.012,48.41188,-0.68286,17.33677,0.00E+00,70,-0.20451,1
523.512,48.46212,-0.67834,17.33718,0.00E+00,70,-0.20057,1
524.012,48.51242,-0.67628,17.33024,0.00E+00,70,-0.19835,1
524.512,48.56277,-0.67268,17.32037,0.00E+00,70,-0.19805,1
525.012,48.61318,-0.66899,17.31127,0.00E+00,70,-0.19962,1
525.512,48.66364,-0.66707,17.29957,0.00E+00,70,-0.20272,1
526.012,48.71415,-0.66436,17.2889,0.00E+00,70,-0.20683,1
526.512,48.76467,-0.66213,17.28068,0.00E+00,70,-0.21135,1
527.012,48.81517,-0.65932,17.27317,0.00E+00,70,-0.21568,1
527.512,48.86566,-0.65684,17.26293,0.00E+00,70,-0.21935,1
528.012,48.91618,-0.65447,17.24258,0.00E+00,70,-0.22207,1
528.512,48.96664,-0.65363,17.22305,0.00E+00,70,-0.22378,1
529.012,49.01705,-0.65271,17.21756,0.00E+00,70,-0.22463,1
529.512,49.0675,-0.65061,17.20889,0.00E+00,70,-0.2249,1
530.012,49.11797,-0.6491,17.19801,0.00E+00,70,-0.22492,1
530.512,49.16842,-0.6483,17.18487,0.00E+00,70,-0.22493,1
531.012,49.21888,-0.64814,17.1741,0.00E+00,70,-0.22504,1
531.512,49.26938,-0.64861,17.16734,0.00E+00,70,-0.22515,1
532.012,49.31986,-0.64792,17.15852,0.00E+00,70,-0.22505,1
532.512,49.37031,-0.64845,17.14569,0.00E+00,70,-0.22442,1
533.012,49.42079,-0.64759,17.1293,0.00E+00,70,-0.22298,1
533.512,49.47133,-0.64673,17.11538,0.00E+00,70,-0.22059,1
534.012,49.52187,-0.64752,17.1028,0.00E+00,70,-0.21731,1
534.512,49.57241,-0.64846,17.08848,0.00E+00,70,-0.21342,1
535.012,49.62299,-0.64803,17.0794,0.00E+00,70,-0.20938,1
535.512,49.67355,-0.64831,17.07205,0.00E+00,70,-0.20572,1
536.012,49.72407,-0.64894,17.0647,0.00E+00,70,-0.20296,1
536.512,49.77464,-0.65012,17.05599,0.00E+00,70,-0.20147,1
537.012,49.82525,-0.65127,17.04559,0.00E+00,70,-0.20139,1
537.512,49.87582,-0.65308,17.0361,0.00E+00,70,-0.20266,1
538.012,49.92641,-0.65532,17.02819,0.00E+00,70,-0.20502,1
538.512,49.97704,-0.65662,17.01992,0.00E+00,70,-0.20805,1
539.012,50.02761,-0.65936,17.00694,0.00E+00,70,-0.21133,1
539.512,50.07819,-0.66108,16.99592,0.00E+00,70,-0.21447,1
540.012,50.12884,-0.66332,16.98587,0.00E+00,70,-0.21723,1
540.512,50.17948,-0.66663,16.96557,0.00E+00,70,-0.21947,1
541.012,50.23008,-0.66833,16.95188,0.00E+00,70,-0.2212,1
541.512,50.2807,-0.67176,16.94729,0.00E+00,70,-0.22247,1
542.012,50.33129,-0.67546,16.94114,0.00E+00,70,-0.22335,1
542.512,50.38182,-0.67919,16.9299,0.00E+00,70,-0.22385,1
543.012,50.43232,-0.68305,16.91837,0.00E+00,70,-0.22398,1
543.512,50.48286,-0.68597,16.90392,0.00E+00,70,-0.2237,1
544.012,50.53339,-0.69027,16.88733,0.00E+00,70,-0.22305,1
544.512,50.58393,-0.69476,16.87711,0.00E+00,70,-0.22215,1
545.012,50.63447,-0.69862,16.86697,0.00E+00,70,-0.22122,1
545.512,50.68505,-0.70385,16.85521,0.00E+00,70,-0.22057,1
546.012,50.73561,-0.70825,16.84513,0.00E+00,70,-0.22054,1
546.512,50.78615,-0.71447,16.83385,0.00E+00,70,-0.2214,1
547.012,50.83669,-0.71752,16.82523,0.00E+00,70,-0.22328,1
547.512,50.88726,-0.72482,16.8188,0.00E+00,70,-0.22611,1
548.012,50.93783,-0.7296,16.81183,0.00E+00,70,-0.22964,1
548.512,50.9884,-0.73652,16.79321,0.00E+00,70,-0.23348,1
549.012,51.03902,-0.74244,16.77869,0.00E+00,70,-0.23716,1
549.512,51.08967,-0.74846,16.76656,0.00E+00,70,-0.24023,1
550.012,51.14027,-0.75523,16.75461,0.00E+00,70,-0.24231,1
550.512,51.19087,-0.76187,16.74516,0.00E+00,70,-0.2432,1
551.012,51.24153,-0.76896,16.72759,0.00E+00,70,-0.24281,1
551.512,51.29214,-0.77515,16.7099,0.00E+00,70,-0.24123,1
552.012,51.34274,-0.78404,16.70169,0.00E+00,70,-0.23864,1
552.512,51.39337,-0.79247,16.6911,0.00E+00,70,-0.23525,1
553.012,51.44393,-0.79987,16.67844,0.00E+00,70,-0.23132,1
553.512,51.4944,-0.80843,16.66709,0.00E+00,70,-0.22707,1
554.012,51.54489,-0.81621,16.65571,0.00E+00,70,-0.22267,1
554.512,51.59537,-0.82502,16.64574,0.00E+00,70,-0.21827,1
555.012,51.64589,-0.83365,16.63329,0.00E+00,70,-0.21397,1
555.512,51.69649,-0.84305,16.62198,0.00E+00,70,-0.20986,1
556.012,51.74718,-0.85299,16.60928,0.00E+00,70,-0.20603,1
556.512,51.79789,-0.86182,16.60269,0.00E+00,70,-0.20259,1
557.012,51.84864,-0.87235,16.59656,0.00E+00,70,-0.19965,1
557.512,51.89936,-0.88237,16.58405,0.00E+00,70,-0.19736,1
558.012,51.95003,-0.89159,16.57146,0.00E+00,70,-0.19589,1
558.512,52.00069,-0.9032,16.55893,0.00E+00,70,-0.19538,1
559.012,52.0514,-0.91346,16.55394,0.00E+00,70,-0.19599,1
559.512,52.10212,-0.92416,16.54626,0.00E+00,70,-0.19776,1
560.012,52.15288,-0.93518,16.53746,0.00E+00,70,-0.20065,1
560.512,52.20373,-0.94543,16.5285,0.00E+00,70,-0.20447,1
561.012,52.25452,-0.9575,16.51702,0.00E+00,70,-0.20886,1
561.512,52.30524,-0.96965,16.50583,0.00E+00,70,-0.21335,1
562.012,52.35593,-0.98045,16.49573,0.00E+00,70,-0.21736,1
562.512,52.40669,-0.99265,16.48603,0.00E+00,70,-0.22036,1
563.012,52.45736,-1.00466,16.47612,0.00E+00,70,-0.22183,1
563.512,52.50812,-1.01709,16.45484,0.00E+00,70,-0.22145,1
564.012,52.55896,-1.02988,16.43811,0.00E+00,70,-0.21909,1
564.512,52.60979,-1.04272,16.43225,0.00E+00,70,-0.21487,1
565.012,52.66054,-1.05474,16.42111,0.00E+00,70,-0.20913,1
565.512,52.71141,-1.06887,16.40862,0.00E+00,70,-0.20234,1
566.012,52.7622,-1.0808,16.3999,0.00E+00,70,-0.19512,1
566.512,52.81295,-1.09491,16.38993,0.00E+00,70,-0.18808,1
567.012,52.86369,-1.10811,16.37546,0.00E+00,70,-0.18179,1
567.512,52.91441,-1.12191,16.37377,0.00E+00,70,-0.1767,1
568.012,52.96505,-1.13552,16.36979,0.00E+00,70,-0.17314,1
568.512,53.01574,-1.14985,16.36114,0.00E+00,70,-0.17126,1
569.012,53.06644,-1.16382,16.35073,0.00E+00,70,-0.17106,1
569.512,53.11715,-1.17831,16.34155,0.00E+00,70,-0.17238,1
570.012,53.16785,-1.19314,16.33392,0.00E+00,70,-0.17484,1
570.512,53.21854,-1.20685,16.32459,0.00E+00,70,-0.17794,1
571.012,53.2692,-1.22141,16.31725,0.00E+00,70,-0.181,1
571.512,53.31988,-1.23769,16.31229,0.00E+00,70,-0.1833,1
572.012,53.37061,-1.25199,16.30509,0.00E+00,70,-0.18412,1
572.512,53.42141,-1.26686,16.29771,0.00E+00,70,-0.18283,1
573.012,53.47225,-1.2837,16.27362,0.00E+00,70,-0.17909,1
573.512,53.52306,-1.29902,16.23936,0.00E+00,70,-0.17287,1
574.012,53.57384,-1.31323,16.24276,0.00E+00,70,-0.16452,1
574.512,53.62456,-1.32839,16.26422,0.00E+00,70,-0.15472,1
575.012,53.67523,-1.34553,16.24785,0.00E+00,70,-0.14442,1
575.512,53.72593,-1.3611,16.21734,0.00E+00,70,-0.13467,1
576.012,53.77668,-1.37611,16.21405,0.00E+00,70,-0.12654,1
576.512,53.82747,-1.3908,16.21582,0.00E+00,70,-0.12093,1
577.012,53.87825,-1.40722,16.21731,0.00E+00,70,-0.11847,1
577.512,53.92897,-1.42266,16.22261,0.00E+00,70,-0.11936,1
578.012,53.97968,-1.43786,16.21908,0.00E+00,70,-0.12345,1
578.512,54.03032,-1.45532,16.20834,0.00E+00,70,-0.13021,1
579.012,54.08092,-1.47024,16.19796,0.00E+00,70,-0.13892,1
579.512,54.13156,-1.48767,16.19235,0.00E+00,70,-0.14877,1
580.012,54.18223,-1.50288,16.18427,0.00E+00,70,-0.15898,1
580.512,54.23285,-1.51949,16.17361,0.00E+00,70,-0.16889,1
581.012,54.28345,-1.53611,16.16465,0.00E+00,70,-0.17802,1
581.512,54.334,-1.55139,16.15511,0.00E+00,70,-0.1861,1
582.012,54.38448,-1.56821,16.14473,0.00E+00,70,-0.19304,1
582.512,54.43495,-1.58571,16.13607,0.00E+00,70,-0.19889,1
583.012,54.48546,-1.60052,16.12445,0.00E+00,70,-0.20384,1
583.512,54.53599,-1.61734,16.11268,0.00E+00,70,-0.20814,1
584.012,54.58655,-1.63302,16.10067,0.00E+00,70,-0.21212,1
584.512,54.63716,-1.64848,16.08762,0.00E+00,70,-0.21612,1
585.012,54.68774,-1.66539,16.07809,0.00E+00,70,-0.22042,1
585.512,54.73827,-1.68129,16.06927,0.00E+00,70,-0.22519,1
586.012,54.78876,-1.69719,16.06185,0.00E+00,70,-0.23041,1
586.512,54.83926,-1.71234,16.05112,0.00E+00,70,-0.23585,1
587.012,54.8897,-1.72918,16.04108,0.00E+00,70,-0.24108,1
587.512,54.94012,-1.7446,16.02655,0.00E+00,70,-0.24555,1
588.012,54.99055,-1.76042,16.00585,0.00E+00,70,-0.24869,1
588.512,55.04098,-1.77612,15.99613,0.00E+00,70,-0.25003,1
589.012,55.09136,-1.79101,15.98854,0.00E+00,70,-0.24927,1
589.512,55.14172,-1.80743,15.96321,0.00E+00,70,-0.24641,1
590.012,55.19209,-1.8244,15.9485,0.00E+00,70,-0.2417,1
590.512,55.24243,-1.83984,15.9363,0.00E+00,70,-0.23562,1
591.012,55.29279,-1.85611,15.92694,0.00E+00,70,-0.22878,1
591.512,55.34318,-1.87217,15.91842,0.00E+00,70,-0.22187,1
592.012,55.39352,-1.88765,15.90846,0.00E+00,70,-0.2155,1
592.512,55.44383,-1.90314,15.8995,0.00E+00,70,-0.21019,1
593.012,55.4941,-1.91893,15.89104,0.00E+00,70,-0.20633,1
593.512,55.54437,-1.93368,15.87879,0.00E+00,70,-0.20415,1
594.012,55.59458,-1.94956,15.86832,0.00E+00,70,-0.20378,1
594.512,55.64484,-1.96384,15.86095,0.00E+00,70,-0.20524,1
595.012,55.69503,-1.97915,15.84991,0.00E+00,70,-0.20835,1
595.512,55.74526,-1.99417,15.84093,0.00E+00,70,-0.21271,1
596.012,55.79543,-2.01015,15.83224,0.00E+00,70,-0.21757,1
596.512,55.84562,-2.0244,15.82362,0.00E+00,70,-0.22193,1
597.012,55.89574,-2.03815,15.81259,0.00E+00,70,-0.2245,1
597.512,55.94594,-2.05346,15.80128,0.00E+00,70,-0.22399,1
598.012,55.99609,-2.06739,15.7922,0.00E+00,70,-0.21934,1
598.512,56.04618,-2.08166,15.78535,0.00E+00,70,-0.21004,1
599.012,56.09628,-2.09493,15.75682,0.00E+00,70,-0.19632,1
599.512,56.14641,-2.11104,15.70386,0.00E+00,70,-0.17919,1
600.012,56.19655,-2.12262,15.69267,0.00E+00,70,-0.16039,1
600.512,56.24672,-2.13623,15.71464,0.00E+00,70,-0.14195,1
601.012,56.29695,-2.14963,15.7278,0.00E+00,70,-0.12589,1
601.512,56.34718,-2.16274,15.73689,0.00E+00,70,-0.11379,1
602.012,56.39741,-2.17634,15.73273,0.00E+00,70,-0.10655,1
602.512,56.44758,-2.18943,15.71799,0.00E+00,70,-0.10431,1
603.012,56.49774,-2.20155,15.70627,0.00E+00,70,-0.10662,1
603.512,56.54792,-2.21553,15.70608,0.00E+00,70,-0.11266,1
604.012,56.59802,-2.22742,15.7025,0.00E+00,70,-0.12147,1
604.512,56.64813,-2.24104,15.6988,0.00E+00,70,-0.13218,1
605.012,56.69829,-2.25365,15.69145,0.00E+00,70,-0.14412,1
605.512,56.74843,-2.26552,15.68274,0.00E+00,70,-0.15679,1
606.012,56.79855,-2.27786,15.67403,0.00E+00,70,-0.16988,1
606.512,56.84877,-2.29029,15.6653,0.00E+00,70,-0.18327,1
607.012,56.89897,-2.30374,15.65657,0.00E+00,70,-0.1968,1
607.512,56.94914,-2.31382,15.64786,0.00E+00,70,-0.21035,1
608.012,56.9993,-2.32718,15.63673,0.00E+00,70,-0.22371,1
608.512,57.04947,-2.33966,15.62053,0.00E+00,70,-0.2365,1
609.012,57.09955,-2.35058,15.60932,0.00E+00,70,-0.24805,1
609.512,57.14961,-2.36233,15.59565,0.00E+00,70,-0.25748,1
610.012,57.19962,-2.37502,15.58569,0.00E+00,70,-0.26367,1
610.512,57.24966,-2.38716,15.57575,0.00E+00,70,-0.26549,1
611.012,57.29963,-2.39853,15.56949,0.00E+00,70,-0.262,1
611.512,57.34967,-2.40924,15.55977,0.00E+00,70,-0.25276,1
612.012,57.39974,-2.4209,15.50152,0.00E+00,70,-0.23804,1
612.512,57.4498,-2.43342,15.45658,0.00E+00,70,-0.21892,1
613.012,57.49976,-2.44422,15.4601,0.00E+00,70,-0.19723,1
613.512,57.54978,-2.4538,15.4887,0.00E+00,70,-0.17506,1
614.012,57.59975,-2.4625,15.48758,0.00E+00,70,-0.15465,1
614.512,57.6497,-2.47471,15.47767,0.00E+00,70,-0.13777,1
615.012,57.69964,-2.48351,15.46647,0.00E+00,70,-0.12558,1
615.512,57.74966,-2.49403,15.46517,0.00E+00,70,-0.11842,1
616.012,57.79964,-2.50303,15.46642,0.00E+00,70,-0.11591,1
616.512,57.84961,-2.51315,15.46644,0.00E+00,70,-0.11705,1
617.012,57.89958,-2.52338,15.46275,0.00E+00,70,-0.12051,1
617.512,57.94963,-2.53315,15.45409,0.00E+00,70,-0.12495,1
618.012,57.99966,-2.54111,15.44168,0.00E+00,70,-0.12918,1
618.512,58.04969,-2.55078,15.43048,0.00E+00,70,-0.13242,1
619.012,58.09969,-2.55903,15.42054,0.00E+00,70,-0.13434,1
619.512,58.14968,-2.56867,15.41062,0.00E+00,70,-0.135,1
620.012,58.19957,-2.57824,15.40191,0.00E+00,70,-0.13474,1
620.512,58.24943,-2.5856,15.39938,0.00E+00,70,-0.13402,1
621.012,58.29932,-2.59542,15.39939,0.00E+00,70,-0.13324,1
621.512,58.34927,-2.60404,15.39695,0.00E+00,70,-0.13272,1
622.012,58.39917,-2.61322,15.39203,0.00E+00,70,-0.13257,1
622.512,58.44914,-2.62098,15.38346,0.00E+00,70,-0.1328,1
623.012,58.49912,-2.63016,15.36857,0.00E+00,70,-0.13339,1
623.512,58.54903,-2.63803,15.35857,0.00E+00,70,-0.13431,1
624.012,58.59892,-2.64615,15.35105,0.00E+00,70,-0.13569,1
624.512,58.64886,-2.65391,15.34973,0.00E+00,70,-0.13773,1
625.012,58.69878,-2.66177,15.34733,0.00E+00,70,-0.14072,1
625.512,58.74867,-2.66922,15.3424,0.00E+00,70,-0.14496,1
626.012,58.79854,-2.67783,15.33631,0.00E+00,70,-0.15067,1
626.512,58.84841,-2.68473,15.32524,0.00E+00,70,-0.15784,1
627.012,58.89818,-2.6932,15.31527,0.00E+00,70,-0.16616,1
627.512,58.94795,-2.70042,15.30663,0.00E+00,70,-0.17497,1
628.012,58.99773,-2.70713,15.29897,0.00E+00,70,-0.18323,1
628.512,59.04759,-2.71302,15.2988,0.00E+00,70,-0.18965,1
629.012,59.09741,-2.71926,15.29654,0.00E+00,70,-0.19286,1
629.512,59.1473,-2.72719,15.29057,0.00E+00,70,-0.19176,1
630.012,59.19714,-2.73411,15.27136,0.00E+00,70,-0.18579,1
630.512,59.24701,-2.741,15.21727,0.00E+00,70,-0.17522,1
631.012,59.29682,-2.745,15.19217,0.00E+00,70,-0.16115,1
631.512,59.34672,-2.74963,15.20104,0.00E+00,70,-0.14534,1
632.012,59.39668,-2.75667,15.21151,0.00E+00,70,-0.12993,1
632.512,59.44672,-2.76118,15.21529,0.00E+00,70,-0.11696,1
633.012,59.49675,-2.76741,15.22058,0.00E+00,70,-0.10795,1
633.512,59.54677,-2.77162,15.21582,0.00E+00,70,-0.10352,1
634.012,59.59672,-2.77787,15.21686,0.00E+00,70,-0.10342,1
634.512,59.64661,-2.78299,15.21237,0.00E+00,70,-0.10663,1
635.012,59.69644,-2.78799,15.20505,0.00E+00,70,-0.1117,1
635.512,59.7463,-2.79442,15.19527,0.00E+00,70,-0.11713,1
636.012,59.79614,-2.79957,15.18435,0.00E+00,70,-0.12169,1
636.512,59.84602,-2.80522,15.16957,0.00E+00,70,-0.12454,1
637.012,59.89591,-2.81034,15.15894,0.00E+00,70,-0.12538,1
637.512,59.94576,-2.8159,15.15724,0.00E+00,70,-0.12427,1
638.012,59.9956,-2.8208,15.15628,0.00E+00,70,-0.12156,1
638.512,60.04548,-2.8253,15.1516,0.00E+00,70,-0.1177,1
639.012,60.09524,-2.83037,15.14543,0.00E+00,70,-0.11313,1
639.512,60.14501,-2.83536,15.1393,0.00E+00,70,-0.10823,1
640.012,60.19484,-2.84052,15.13201,0.00E+00,70,-0.10333,1
640.512,60.24461,-2.84424,15.12441,0.00E+00,70,-9.88E-02,1
641.012,60.29437,-2.84787,15.11933,0.00E+00,70,-9.49E-02,1
641.512,60.34422,-2.85285,15.11422,0.00E+00,70,-9.20E-02,1
642.012,60.39403,-2.8569,15.11261,0.00E+00,70,-9.04E-02,1
642.512,60.4438,-2.86134,15.1116,0.00E+00,70,-9.03E-02,1
643.012,60.49365,-2.8659,15.109,0.00E+00,70,-9.17E-02,1
643.512,60.54348,-2.87009,15.10897,0.00E+00,70,-9.45E-02,1
644.012,60.59327,-2.8732,15.10491,0.00E+00,70,-9.83E-02,1
644.512,60.64311,-2.87728,15.09622,0.00E+00,70,-0.10253,1
645.012,60.69293,-2.88082,15.09085,0.00E+00,70,-0.1068,1
645.512,60.74272,-2.88469,15.08512,0.00E+00,70,-0.1106,1
646.012,60.79252,-2.88697,15.0766,0.00E+00,70,-0.11361,1
646.512,60.84234,-2.89102,15.06894,0.00E+00,70,-0.11573,1
647.012,60.89214,-2.89451,15.0617,0.00E+00,70,-0.11698,1
647.512,60.94196,-2.89843,15.05379,0.00E+00,70,-0.11754,1
648.012,60.99175,-2.90016,15.05177,0.00E+00,70,-0.11764,1
648.512,61.04153,-2.90521,15.05001,0.00E+00,70,-0.11749,1
649.012,61.09128,-2.90834,15.04334,0.00E+00,70,-0.11726,1
649.512,61.14103,-2.9114,15.03446,0.00E+00,70,-0.11699,1
650.012,61.19078,-2.91542,15.0288,0.00E+00,70,-0.11671,1
650.512,61.24057,-2.91799,15.02531,0.00E+00,70,-0.11637,1
651.012,61.29042,-2.92189,15.01865,0.00E+00,70,-0.11594,1
651.512,61.34027,-2.92415,15.00972,0.00E+00,70,-0.11543,1
652.012,61.39019,-2.92688,15.00412,0.00E+00,70,-0.11489,1
652.512,61.44009,-2.92875,14.99948,0.00E+00,70,-0.11441,1
653.012,61.48994,-2.93183,14.99325,0.00E+00,70,-0.1141,1
653.512,61.53972,-2.93467,14.98904,0.00E+00,70,-0.11403,1
654.012,61.58952,-2.9384,14.98562,0.00E+00,70,-0.11428,1
654.512,61.63926,-2.9395,14.98003,0.00E+00,70,-0.11483,1
655.012,61.68898,-2.94217,14.97248,0.00E+00,70,-0.11566,1
655.512,61.73875,-2.94268,14.96717,0.00E+00,70,-0.1167,1
656.012,61.78855,-2.94587,14.9613,0.00E+00,70,-0.11788,1
656.512,61.83833,-2.94846,14.95521,0.00E+00,70,-0.11911,1
657.012,61.88814,-2.95007,14.94782,0.00E+00,70,-0.1203,1
657.512,61.93802,-2.95116,14.94231,0.00E+00,70,-0.12133,1
658.012,61.98788,-2.95343,14.93744,0.00E+00,70,-0.12204,1
658.512,62.03777,-2.95505,14.93267,0.00E+00,70,-0.1222,1
659.012,62.08771,-2.95635,14.9258,0.00E+00,70,-0.12153,1
659.512,62.13771,-2.95734,14.91809,0.00E+00,70,-0.11968,1
660.012,62.18766,-2.95875,14.91169,0.00E+00,70,-0.11636,1
660.512,62.23768,-2.96061,14.90543,0.00E+00,70,-0.11136,1
661.012,62.28769,-2.96204,14.89958,0.00E+00,70,-0.10463,1
661.512,62.33771,-2.964,14.89039,0.00E+00,70,-9.64E-02,1
662.012,62.38769,-2.96582,14.88097,0.00E+00,70,-8.71E-02,1
662.512,62.43766,-2.9676,14.87501,0.00E+00,70,-7.75E-02,1
663.012,62.48755,-2.96973,14.87303,0.00E+00,70,-6.83E-02,1
663.512,62.53742,-2.97123,14.87288,0.00E+00,70,-6.03E-02,1
664.012,62.5872,-2.97245,14.87356,0.00E+00,70,-5.42E-02,1
664.512,62.63697,-2.97372,14.87702,0.00E+00,70,-5.03E-02,1
665.012,62.68677,-2.9764,14.87846,0.00E+00,70,-4.87E-02,1
665.512,62.73659,-2.97714,14.87501,0.00E+00,70,-4.91E-02,1
666.012,62.78638,-2.97897,14.87344,0.00E+00,70,-5.10E-02,1
666.512,62.83623,-2.98085,14.86945,0.00E+00,70,-5.38E-02,1
667.012,62.88607,-2.98225,14.86514,0.00E+00,70,-5.68E-02,1
667.512,62.93588,-2.98394,14.86169,0.00E+00,70,-5.95E-02,1
668.012,62.9857,-2.98605,14.85706,0.00E+00,70,-6.16E-02,1
668.512,63.03556,-2.98767,14.85183,0.00E+00,70,-6.29E-02,1
669.012,63.08539,-2.99038,14.84814,0.00E+00,70,-6.36E-02,1
669.512,63.13522,-2.99088,14.84288,0.00E+00,70,-6.39E-02,1
670.012,63.18504,-2.99186,14.84263,0.00E+00,70,-6.41E-02,1
670.512,63.23485,-2.99297,14.84248,0.00E+00,70,-6.47E-02,1
671.012,63.28463,-2.99415,14.84057,0.00E+00,70,-6.61E-02,1
671.512,63.33441,-2.99486,14.83498,0.00E+00,70,-6.87E-02,1
672.012,63.3842,-2.99422,14.83139,0.00E+00,70,-7.27E-02,1
672.512,63.43401,-2.99592,14.82817,0.00E+00,70,-7.85E-02,1
673.012,63.48382,-2.99706,14.82536,0.00E+00,70,-8.60E-02,1
673.512,63.53368,-2.99803,14.82189,0.00E+00,70,-9.52E-02,1
674.012,63.58358,-2.9983,14.81978,0.00E+00,70,-0.10562,1
674.512,63.63351,-2.99963,14.81877,0.00E+00,70,-0.11657,1
675.012,63.68346,-3.00067,14.81703,0.00E+00,70,-0.12724,1
675.512,63.73345,-3.00137,14.81142,0.00E+00,70,-0.13676,1
676.012,63.78344,-3.00199,14.79989,0.00E+00,70,-0.14433,1
676.512,63.83339,-3.00349,14.77622,0.00E+00,70,-0.14945,1
677.012,63.88339,-3.00387,14.76057,0.00E+00,70,-0.15197,1
677.512,63.93341,-3.00382,14.75591,0.00E+00,70,-0.15204,1
678.012,63.98341,-3.00354,14.75367,0.00E+00,70,-0.1501,1
678.512,64.03341,-3.00482,14.74824,0.00E+00,70,-0.14666,1
679.012,64.08343,-3.00595,14.74404,0.00E+00,70,-0.14218,1
679.512,64.13337,-3.00617,14.73699,0.00E+00,70,-0.13691,1
680.012,64.18326,-3.00655,14.72874,0.00E+00,70,-0.13088,1
680.512,64.23311,-3.00684,14.72157,0.00E+00,70,-0.12391,1
681.012,64.28294,-3.00729,14.7139,0.00E+00,70,-0.11574,1
681.512,64.33272,-3.00748,14.70756,0.00E+00,70,-0.10615,1
682.012,64.38251,-3.00734,14.70032,0.00E+00,70,-9.51E-02,1
682.512,64.4323,-3.00794,14.69459,0.00E+00,70,-8.28E-02,1
683.012,64.48208,-3.00812,14.68901,0.00E+00,70,-6.99E-02,1
683.512,64.53185,-3.00703,14.68278,0.00E+00,70,-5.72E-02,1
684.012,64.58158,-3.00782,14.67626,0.00E+00,70,-4.57E-02,1
684.512,64.63134,-3.00769,14.67367,0.00E+00,70,-3.62E-02,1
685.012,64.68114,-3.008,14.68806,0.00E+00,70,-2.95E-02,1
685.512,64.73091,-3.00817,14.69651,0.00E+00,70,-2.60E-02,1
686.012,64.78067,-3.00793,14.69366,0.00E+00,70,-2.55E-02,1
686.512,64.83044,-3.00912,14.69207,0.00E+00,70,-2.76E-02,1
687.012,64.88016,-3.00942,14.69098,0.00E+00,70,-3.16E-02,1
687.512,64.92983,-3.0085,14.68918,0.00E+00,70,-3.64E-02,1
688.012,64.97948,-3.01041,14.68531,0.00E+00,70,-4.12E-02,1
688.512,65.02916,-3.01171,14.67918,0.00E+00,70,-4.53E-02,1
689.012,65.07884,-3.01117,14.67441,0.00E+00,70,-4.84E-02,1
689.512,65.12856,-3.01077,14.671,0.00E+00,70,-5.04E-02,1
690.012,65.1783,-3.01186,14.66702,0.00E+00,70,-5.17E-02,1
690.512,65.22808,-3.01187,14.66455,0.00E+00,70,-5.27E-02,1
691.012,65.27788,-3.01123,14.6645,0.00E+00,70,-5.44E-02,1
691.512,65.3277,-3.01105,14.66316,0.00E+00,70,-5.72E-02,1
692.012,65.37751,-3.0106,14.6604,0.00E+00,70,-6.19E-02,1
692.512,65.42733,-3.01116,14.65835,0.00E+00,70,-6.86E-02,1
693.012,65.47714,-3.01129,14.65886,0.00E+00,70,-7.74E-02,1
693.512,65.52691,-3.01114,14.65888,0.00E+00,70,-8.79E-02,1
694.012,65.57668,-3.01047,14.65741,0.00E+00,70,-9.94E-02,1
694.512,65.62647,-3.01055,14.65129,0.00E+00,70,-0.11088,1
695.012,65.67624,-3.01074,14.64347,0.00E+00,70,-0.1213,1
695.512,65.72601,-3.01027,14.63694,0.00E+00,70,-0.12968,1
696.012,65.77585,-3.01147,14.62501,0.00E+00,70,-0.13527,1
696.512,65.82572,-3.01167,14.60827,0.00E+00,70,-0.13767,1
697.012,65.87557,-3.01121,14.59606,0.00E+00,70,-0.13687,1
697.512,65.92548,-3.01076,14.59237,0.00E+00,70,-0.1333,1
698.012,65.97544,-3.01119,14.58835,0.00E+00,70,-0.12766,1
698.512,66.0254,-3.01188,14.58118,0.00E+00,70,-0.1209,1
699.012,66.07539,-3.01186,14.57331,0.00E+00,70,-0.11393,1
699.512,66.12545,-3.01159,14.56807,0.00E+00,70,-0.10761,1
700.012,66.17546,-3.01133,14.56758,0.00E+00,70,-0.10254,1
700.512,66.22543,-3.01132,14.56651,0.00E+00,70,-9.91E-02,1
701.012,66.27537,-3.01189,14.5633,0.00E+00,70,-9.72E-02,1
701.512,66.32523,-3.01176,14.55869,0.00E+00,70,-9.67E-02,1
702.012,66.37503,-3.01175,14.55461,0.00E+00,70,-9.73E-02,1
702.512,66.42487,-3.01197,14.54928,0.00E+00,70,-9.86E-02,1
703.012,66.47476,-3.01156,14.54114,0.00E+00,70,-0.10012,1
703.512,66.52468,-3.0114,14.53518,0.00E+00,70,-0.10166,1
704.012,66.57464,-3.01164,14.52974,0.00E+00,70,-0.10304,1
704.512,66.62461,-3.0115,14.52384,0.00E+00,70,-0.10416,1
705.012,66.67458,-3.0101,14.51963,0.00E+00,70,-0.10502,1
705.512,66.72456,-3.00995,14.51611,0.00E+00,70,-0.10559,1
706.012,66.77451,-3.01011,14.51175,0.00E+00,70,-0.10584,1
706.512,66.8245,-3.01067,14.50671,0.00E+00,70,-0.10571,1
707.012,66.87455,-3.01035,14.50147,0.00E+00,70,-0.10513,1
707.512,66.92455,-3.01012,14.49367,0.00E+00,70,-0.10408,1
708.012,66.9745,-3.00965,14.48597,0.00E+00,70,-0.10257,1
708.512,67.02449,-3.00993,14.48015,0.00E+00,70,-0.10071,1
709.012,67.07446,-3.00982,14.47357,0.00E+00,70,-9.86E-02,1
709.512,67.12438,-3.00802,14.46891,0.00E+00,70,-9.64E-02,1
710.012,67.17437,-3.00872,14.46818,0.00E+00,70,-9.42E-02,1
710.512,67.2244,-3.00864,14.46753,0.00E+00,70,-9.20E-02,1
711.012,67.27435,-3.0077,14.46673,0.00E+00,70,-8.97E-02,1
711.512,67.32427,-3.00722,14.45839,0.00E+00,70,-8.73E-02,1
712.012,67.3742,-3.00728,14.4456,0.00E+00,70,-8.47E-02,1
712.512,67.4241,-3.00735,14.43989,0.00E+00,70,-8.19E-02,1
713.012,67.474,-3.00668,14.43756,0.00E+00,70,-7.90E-02,1
713.512,67.52396,-3.00631,14.43682,0.00E+00,70,-7.65E-02,1
714.012,67.57399,-3.00616,14.43404,0.00E+00,70,-7.44E-02,1
714.512,67.62405,-3.00533,14.43148,0.00E+00,70,-7.32E-02,1
715.012,67.6741,-3.00506,14.42945,0.00E+00,70,-7.30E-02,1
715.512,67.72414,-3.00506,14.4251,0.00E+00,70,-7.39E-02,1
716.012,67.77416,-3.00349,14.4228,0.00E+00,70,-7.59E-02,1
716.512,67.82409,-3.00344,14.42096,0.00E+00,70,-7.87E-02,1
717.012,67.87396,-3.0041,14.41531,0.00E+00,70,-8.18E-02,1
717.512,67.92383,-3.00413,14.41099,0.00E+00,70,-8.50E-02,1
718.012,67.97367,-3.00396,14.40762,0.00E+00,70,-8.76E-02,1
718.512,68.02351,-3.00395,14.40304,0.00E+00,70,-8.91E-02,1
719.012,68.07341,-3.00492,14.39866,0.00E+00,70,-8.91E-02,1
719.512,68.12339,-3.00408,14.39093,0.00E+00,70,-8.71E-02,1
720.012,68.17339,-3.00206,14.38242,0.00E+00,70,-8.30E-02,1
720.512,68.22341,-3.00047,14.37619,0.00E+00,70,-7.68E-02,1
721.012,68.27346,-2.99859,14.37194,0.00E+00,70,-6.87E-02,1
721.512,68.32351,-2.99695,14.36866,0.00E+00,70,-5.92E-02,1
722.012,68.37353,-2.9957,14.36706,0.00E+00,70,-4.89E-02,1
722.512,68.42359,-2.99398,14.36112,0.00E+00,70,-3.84E-02,1
723.012,68.47369,-2.99291,14.35848,0.00E+00,70,-2.87E-02,1
723.512,68.5238,-2.9921,14.36303,0.00E+00,70,-2.04E-02,1
724.012,68.5739,-2.99008,14.36446,0.00E+00,70,-1.42E-02,1
724.512,68.62403,-2.98843,14.3657,0.00E+00,70,-1.06E-02,1
725.012,68.67412,-2.98804,14.36696,0.00E+00,70,-9.79E-03,1
725.512,68.72419,-2.98809,14.36816,0.00E+00,70,-1.18E-02,1
726.012,68.77425,-2.98662,14.36956,0.00E+00,70,-1.63E-02,1
726.512,68.82434,-2.98571,14.37007,0.00E+00,70,-2.29E-02,1
727.012,68.87438,-2.98569,14.37059,0.00E+00,70,-3.10E-02,1
727.512,68.92441,-2.98508,14.37153,0.00E+00,70,-3.99E-02,1
728.012,68.97441,-2.985,14.3665,0.00E+00,70,-4.91E-02,1
728.512,69.02436,-2.98248,14.36072,0.00E+00,70,-5.80E-02,1
729.012,69.07424,-2.98146,14.35555,0.00E+00,70,-6.64E-02,1
729.512,69.1241,-2.9821,14.34858,0.00E+00,70,-7.41E-02,1
730.012,69.17398,-2.98011,14.34508,0.00E+00,70,-8.10E-02,1
730.512,69.2239,-2.97851,14.34335,0.00E+00,70,-8.71E-02,1
731.012,69.27385,-2.97704,14.34201,0.00E+00,70,-9.23E-02,1
731.512,69.32386,-2.97566,14.33748,0.00E+00,70,-9.66E-02,1
732.012,69.37394,-2.97408,14.33154,0.00E+00,70,-9.98E-02,1
732.512,69.424,-2.97301,14.32655,0.00E+00,70,-0.10172,1
733.012,69.474,-2.97126,14.31841,0.00E+00,70,-0.10225,1
733.512,69.52398,-2.96836,14.30805,0.00E+00,70,-0.10138,1
734.012,69.57389,-2.96705,14.29885,0.00E+00,70,-9.92E-02,1
734.512,69.62376,-2.96545,14.29437,0.00E+00,70,-9.60E-02,1
735.012,69.6737,-2.96393,14.29462,0.00E+00,70,-9.20E-02,1
735.512,69.7237,-2.96203,14.29296,0.00E+00,70,-8.75E-02,1
736.012,69.77373,-2.95975,14.28827,0.00E+00,70,-8.26E-02,1
736.512,69.82383,-2.9579,14.28329,0.00E+00,70,-7.74E-02,1
737.012,69.87393,-2.95477,14.27822,0.00E+00,70,-7.18E-02,1
737.512,69.92397,-2.95259,14.27377,0.00E+00,70,-6.57E-02,1
738.012,69.97399,-2.9504,14.27057,0.00E+00,70,-5.87E-02,1
738.512,70.02399,-2.9485,14.26903,0.00E+00,70,-5.09E-02,1
739.012,70.074,-2.94589,14.26666,0.00E+00,70,-4.20E-02,1
739.512,70.12406,-2.94311,14.26283,0.00E+00,70,-3.24E-02,1
740.012,70.17412,-2.94192,14.25833,0.00E+00,70,-2.25E-02,1
740.512,70.22425,-2.94026,14.25443,0.00E+00,70,-1.30E-02,1
741.012,70.27438,-2.93843,14.25214,0.00E+00,70,-4.87E-03,1
741.512,70.32445,-2.93559,14.25051,0.00E+00,70,9.79E-04,1
742.012,70.37448,-2.93227,14.26049,0.00E+00,70,3.84E-03,1
742.512,70.42448,-2.93073,14.27194,0.00E+00,70,3.32E-03,1
743.012,70.47437,-2.92881,14.27431,0.00E+00,70,-4.95E-04,1
743.512,70.52422,-2.92638,14.27713,0.00E+00,70,-7.10E-03,1
744.012,70.57407,-2.92458,14.27826,0.00E+00,70,-1.56E-02,1
744.512,70.6239,-2.92245,14.27437,0.00E+00,70,-2.49E-02,1
745.012,70.67373,-2.92099,14.2675,0.00E+00,70,-3.41E-02,1
745.512,70.72365,-2.9187,14.26268,0.00E+00,70,-4.21E-02,1
746.012,70.77361,-2.91578,14.25864,0.00E+00,70,-4.84E-02,1
746.512,70.82361,-2.91389,14.25338,0.00E+00,70,-5.29E-02,1
747.012,70.87365,-2.91206,14.24899,0.00E+00,70,-5.58E-02,1
747.512,70.92367,-2.90992,14.24569,0.00E+00,70,-5.75E-02,1
748.012,70.97372,-2.90652,14.24456,0.00E+00,70,-5.85E-02,1
748.512,71.02374,-2.90341,14.24434,0.00E+00,70,-5.95E-02,1
749.012,71.07374,-2.89995,14.24228,0.00E+00,70,-6.08E-02,1
749.512,71.12376,-2.89649,14.23988,0.00E+00,70,-6.28E-02,1
750.012,71.17383,-2.89436,14.23666,0.00E+00,70,-6.54E-02,1
750.512,71.22389,-2.89224,14.23357,0.00E+00,70,-6.85E-02,1
751.012,71.27396,-2.88921,14.23042,0.00E+00,70,-7.18E-02,1
751.512,71.32406,-2.88712,14.22753,0.00E+00,70,-7.50E-02,1
752.012,71.37417,-2.88406,14.22323,0.00E+00,70,-7.76E-02,1
752.512,71.42421,-2.881,14.21759,0.00E+00,70,-7.92E-02,1
753.012,71.47423,-2.88025,14.21494,0.00E+00,70,-7.96E-02,1
753.512,71.52428,-2.87795,14.20777,0.00E+00,70,-7.89E-02,1
754.012,71.57433,-2.87449,14.19895,0.00E+00,70,-7.73E-02,1
754.512,71.62433,-2.8728,14.1937,0.00E+00,70,-7.54E-02,1
755.012,71.67438,-2.8704,14.18968,0.00E+00,70,-7.38E-02,1
755.512,71.72446,-2.86652,14.18863,0.00E+00,70,-7.36E-02,1
756.012,71.7745,-2.86263,14.18891,0.00E+00,70,-7.54E-02,1
756.512,71.82451,-2.86103,14.18838,0.00E+00,70,-8.02E-02,1
757.012,71.87455,-2.85918,14.18639,0.00E+00,70,-8.83E-02,1
757.512,71.92454,-2.85579,14.18392,0.00E+00,70,-9.98E-02,1
758.012,71.97444,-2.85308,14.18091,0.00E+00,70,-0.11398,1
758.512,72.02438,-2.85055,14.17691,0.00E+00,70,-0.1297,1
759.012,72.07434,-2.84862,14.17376,0.00E+00,70,-0.14499,1
759.512,72.1243,-2.84646,14.16743,0.00E+00,70,-0.15743,1
760.012,72.17429,-2.84333,14.15913,0.00E+00,70,-0.16449,1
760.512,72.22433,-2.83939,14.15099,0.00E+00,70,-0.16396,1
761.012,72.27432,-2.8368,14.15046,0.00E+00,70,-0.15452,1
761.512,72.32426,-2.83551,14.11286,0.00E+00,70,-0.13618,1
762.012,72.37419,-2.83232,14.04725,0.00E+00,70,-0.11038,1
762.512,72.42411,-2.82815,14.02819,0.00E+00,70,-7.99E-02,1
763.012,72.47405,-2.82516,14.05505,0.00E+00,70,-4.83E-02,1
763.512,72.52403,-2.82254,14.0895,0.00E+00,70,-1.92E-02,1
764.012,72.57405,-2.81856,14.10653,0.00E+00,70,4.02E-03,1
764.512,72.6241,-2.81555,14.11408,0.00E+00,70,1.94E-02,1
765.012,72.67417,-2.81329,14.1176,0.00E+00,70,2.63E-02,1
765.512,72.72423,-2.81115,14.11916,0.00E+00,70,2.54E-02,1
766.012,72.77427,-2.80692,14.12127,0.00E+00,70,1.82E-02,1
766.512,72.82429,-2.80296,14.12185,0.00E+00,70,7.07E-03,1
767.012,72.87423,-2.80191,14.11743,0.00E+00,70,-6.01E-03,1
767.512,72.92413,-2.79977,14.11308,0.00E+00,70,-1.93E-02,1
768.012,72.97402,-2.79724,14.10924,0.00E+00,70,-3.15E-02,1
768.512,73.0239,-2.79362,14.10646,0.00E+00,70,-4.24E-02,1
769.012,73.07381,-2.7907,14.1026,0.00E+00,70,-5.17E-02,1
769.512,73.12382,-2.78997,14.0987,0.00E+00,70,-6.00E-02,1
770.012,73.17385,-2.78757,14.09609,0.00E+00,70,-6.76E-02,1
770.512,73.22388,-2.78413,14.09527,0.00E+00,70,-7.50E-02,1
771.012,73.27395,-2.78039,14.09321,0.00E+00,70,-8.26E-02,1
771.512,73.32401,-2.77764,14.09118,0.00E+00,70,-9.04E-02,1
772.012,73.37402,-2.77476,14.08609,0.00E+00,70,-9.82E-02,1
772.512,73.42405,-2.77113,14.07938,0.00E+00,70,-0.10555,1
773.012,73.47408,-2.76824,14.07437,0.00E+00,70,-0.11184,1
773.512,73.52402,-2.76541,14.06722,0.00E+00,70,-0.11636,1
774.012,73.57396,-2.76288,14.0603,0.00E+00,70,-0.11852,1
774.512,73.62391,-2.76037,14.05413,0.00E+00,70,-0.11788,1
775.012,73.6738,-2.75668,14.04423,0.00E+00,70,-0.11434,1
775.512,73.7237,-2.75359,14.0312,0.00E+00,70,-0.1081,1
776.012,73.77365,-2.7511,14.01996,0.00E+00,70,-9.97E-02,1
776.512,73.82367,-2.74869,14.01503,0.00E+00,70,-9.00E-02,1
777.012,73.87374,-2.74435,14.01489,0.00E+00,70,-8.00E-02,1
777.512,73.92384,-2.74,14.01557,0.00E+00,70,-7.05E-02,1
778.012,73.97395,-2.73721,14.01627,0.00E+00,70,-6.24E-02,1
778.512,74.024,-2.73373,14.01647,0.00E+00,70,-5.61E-02,1
779.012,74.07393,-2.73146,14.01473,0.00E+00,70,-5.19E-02,1
779.512,74.12378,-2.72811,14.01068,0.00E+00,70,-4.97E-02,1
780.012,74.17361,-2.72445,14.00697,0.00E+00,70,-4.91E-02,1
780.512,74.22343,-2.7219,14.00765,0.00E+00,70,-4.97E-02,1
781.012,74.27329,-2.71969,14.00707,0.00E+00,70,-5.11E-02,1
781.512,74.32321,-2.71702,14.00177,0.00E+00,70,-5.28E-02,1
782.012,74.37315,-2.71355,13.99845,0.00E+00,70,-5.46E-02,1
782.512,74.42306,-2.71014,13.99452,0.00E+00,70,-5.60E-02,1
783.012,74.47296,-2.70563,13.99138,0.00E+00,70,-5.71E-02,1
783.512,74.52289,-2.70146,13.98904,0.00E+00,70,-5.77E-02,1
784.012,74.57281,-2.69948,13.98646,0.00E+00,70,-5.81E-02,1
784.512,74.62269,-2.69622,13.98427,0.00E+00,70,-5.84E-02,1
785.012,74.67261,-2.69294,13.98052,0.00E+00,70,-5.91E-02,1
785.512,74.72255,-2.69041,13.976,0.00E+00,70,-6.07E-02,1
786.012,74.77243,-2.68707,13.97182,0.00E+00,70,-6.39E-02,1
786.512,74.82232,-2.68462,13.96737,0.00E+00,70,-6.91E-02,1
787.012,74.87228,-2.68133,13.96699,0.00E+00,70,-7.68E-02,1
787.512,74.92223,-2.67804,13.96781,0.00E+00,70,-8.65E-02,1
788.012,74.9722,-2.67497,13.9684,0.00E+00,70,-9.74E-02,1
788.512,75.02222,-2.67174,13.96863,0.00E+00,70,-0.10779,1
789.012,75.07226,-2.66984,13.96754,0.00E+00,70,-0.11552,1
789.512,75.12228,-2.66678,13.96452,0.00E+00,70,-0.11837,1
790.012,75.17227,-2.66454,13.9667,0.00E+00,70,-0.11454,1
790.512,75.22224,-2.66361,13.93788,0.00E+00,70,-0.10325,1
791.012,75.27218,-2.66098,13.87319,0.00E+00,70,-8.50E-02,1
791.512,75.32209,-2.65741,13.85489,0.00E+00,70,-6.17E-02,1
792.012,75.372,-2.65413,13.87242,0.00E+00,70,-3.62E-02,1
792.512,75.42199,-2.6504,13.89157,0.00E+00,70,-1.18E-02,1
793.012,75.47198,-2.64715,13.91725,0.00E+00,70,8.52E-03,1
793.512,75.52199,-2.64375,13.93074,0.00E+00,70,2.33E-02,1
794.012,75.57202,-2.64064,13.93128,0.00E+00,70,3.39E-02,1
794.512,75.62203,-2.63765,13.93776,0.00E+00,70,4.11E-02,1
795.012,75.67199,-2.63453,13.94309,0.00E+00,70,3.74E-02,1
795.512,75.72191,-2.63233,13.94183,0.00E+00,70,1.41E-02,1
796.012,75.7718,-2.62779,13.93258,0.00E+00,70,-2.05E-02,1
796.512,75.82168,-2.62458,13.92271,0.00E+00,70,-4.87E-02,1
797.012,75.87142,-2.62268,13.92228,0.00E+00,70,-6.17E-02,1
797.512,75.92149,-2.61904,13.92328,0.00E+00,70,-6.45E-02,1
