Time (s),Mass (g),TC back 1 (K)
0,12.182,298.1
1,12.180,298.0
2,12.178,298.0
3,12.176,298.1
4,12.174,298.2
5,12.172,298.1
6,12.170,298.0
7,12.167,298.0
8,12.164,298.1
9,12.161,297.9
10,12.158,297.8
11,12.155,297.8
12,12.152,298.0
13,12.148,298.0
14,12.144,298.1
15,12.140,298.1
16,12.136,298.1
17,12.132,298.1
18,12.127,298.3
19,12.122,298.3
20,12.117,298.4
21,12.112,298.5
22,12.107,298.6
23,12.101,298.9
24,12.096,299.2
25,12.090,299.4
26,12.083,299.9
27,12.077,300.1
28,12.070,300.5
29,12.064,300.8
30,12.056,301.2
31,12.049,301.7
32,12.042,302.2
33,12.034,302.7
34,12.026,303.1
35,12.017,303.6
36,12.009,304.3
37,12.000,305.0
38,11.991,305.4
39,11.982,305.9
40,11.972,306.6
41,11.963,307.4
42,11.953,308.2
43,11.943,308.9
44,11.932,309.6
45,11.922,310.4
46,11.911,311.1
47,11.900,312.0
48,11.889,312.8
49,11.878,313.7
50,11.867,314.6
51,11.855,315.5
52,11.843,316.3
53,11.832,317.2
54,11.820,318.1
55,11.807,319.0
56,11.795,319.8
57,11.783,320.7
58,11.770,321.7
59,11.758,322.7
60,11.745,323.5
61,11.732,324.5
62,11.719,325.5
63,11.706,326.4
64,11.693,327.4
65,11.680,328.4
66,11.667,329.4
67,11.654,330.4
68,11.640,331.4
69,11.627,332.5
70,11.614,333.5
71,11.600,334.3
72,11.587,335.3
73,11.573,336.5
74,11.560,337.5
75,11.546,338.5
76,11.533,339.5
77,11.519,340.6
78,11.506,341.5
79,11.492,342.6
80,11.478,343.6
81,11.465,344.6
82,11.451,345.6
83,11.438,346.6
84,11.424,347.6
85,11.411,348.6
86,11.397,349.5
87,11.384,350.5
88,11.370,351.5
89,11.357,352.6
90,11.344,353.6
91,11.330,354.6
92,11.317,355.6
93,11.304,356.6
94,11.290,357.6
95,11.277,358.5
96,11.264,359.5
97,11.251,360.4
98,11.238,361.4
99,11.225,362.4
100,11.212,363.3
101,11.200,364.2
102,11.187,365.2
103,11.174,366.2
104,11.162,367.1
105,11.149,368.1
106,11.137,369.0
107,11.125,370.0
108,11.112,370.9
109,11.100,371.8
110,11.088,372.7
111,11.076,373.7
112,11.065,374.6
113,11.053,375.5
114,11.041,376.5
115,11.030,377.5
116,11.018,378.4
117,11.007,379.2
118,10.995,380.1
119,10.984,380.9
120,10.973,381.8
121,10.962,382.8
122,10.951,383.6
123,10.939,384.4
124,10.928,385.3
125,10.917,386.0
126,10.906,386.8
127,10.896,387.7
128,10.885,388.6
129,10.874,389.4
130,10.863,390.2
131,10.852,391.0
132,10.841,391.8
133,10.831,392.6
134,10.820,393.4
135,10.809,394.2
136,10.799,395.0
137,10.788,395.8
138,10.777,396.6
139,10.766,397.4
140,10.756,398.1
141,10.745,398.8
142,10.734,399.5
143,10.723,400.3
144,10.713,401.0
145,10.702,401.8
146,10.691,402.5
147,10.680,403.2
148,10.669,404.0
149,10.659,404.8
150,10.648,405.4
151,10.637,406.1
152,10.626,406.8
153,10.615,407.5
154,10.604,408.1
155,10.593,408.7
156,10.583,409.5
157,10.572,410.2
158,10.561,410.9
159,10.550,411.5
160,10.539,412.1
161,10.528,412.7
162,10.518,413.3
163,10.507,413.9
164,10.496,414.6
165,10.485,415.2
166,10.475,415.8
167,10.464,416.3
168,10.453,416.9
169,10.443,417.5
170,10.432,418.2
171,10.422,418.8
172,10.411,419.5
173,10.401,420.1
174,10.390,420.8
175,10.380,421.4
176,10.370,421.8
177,10.359,422.4
178,10.349,423.0
179,10.339,423.5
180,10.329,424.1
181,10.319,424.7
182,10.309,425.2
183,10.299,425.8
184,10.289,426.2
185,10.279,426.8
186,10.269,427.1
187,10.259,427.6
188,10.250,428.1
189,10.240,428.5
190,10.230,429.0
191,10.221,429.6
192,10.211,430.0
193,10.201,430.5
194,10.192,430.9
195,10.182,431.4
196,10.173,431.9
197,10.163,432.3
198,10.153,432.8
199,10.144,433.2
200,10.134,433.7
201,10.125,434.3
202,10.115,434.7
203,10.106,435.1
204,10.096,435.6
205,10.086,436.0
206,10.077,436.5
207,10.067,437.0
208,10.057,437.5
209,10.048,437.8
210,10.038,438.4
211,10.028,438.7
212,10.018,439.2
213,10.008,439.6
214,9.999,440.0
215,9.989,440.5
216,9.979,440.9
217,9.969,441.4
218,9.958,441.9
219,9.948,442.3
220,9.938,442.6
221,9.928,443.0
222,9.918,443.4
223,9.907,443.9
224,9.897,444.3
225,9.887,444.7
226,9.876,445.0
227,9.866,445.4
228,9.856,445.9
229,9.845,446.3
230,9.835,446.6
231,9.824,447.1
232,9.814,447.4
233,9.803,447.8
234,9.793,448.2
235,9.782,448.5
236,9.772,448.9
237,9.761,449.3
238,9.751,449.6
239,9.741,450.0
240,9.730,450.4
241,9.720,450.7
242,9.709,451.1
243,9.699,451.6
244,9.689,451.9
245,9.678,452.2
246,9.668,452.6
247,9.658,453.1
248,9.648,453.5
249,9.637,453.9
250,9.627,454.2
251,9.617,454.6
252,9.607,454.9
253,9.597,455.3
254,9.587,455.7
255,9.577,456.0
256,9.567,456.4
257,9.558,456.7
258,9.548,457.0
259,9.538,457.3
260,9.528,457.7
261,9.519,458.1
262,9.509,458.4
263,9.500,458.7
264,9.490,459.0
265,9.481,459.4
266,9.471,459.7
267,9.462,460.0
268,9.452,460.3
269,9.443,460.7
270,9.434,461.0
271,9.424,461.3
272,9.415,461.7
273,9.406,461.9
274,9.397,462.2
275,9.387,462.6
276,9.378,462.8
277,9.369,463.2
278,9.360,463.5
279,9.351,463.8
280,9.342,464.0
281,9.333,464.4
282,9.324,464.5
283,9.315,464.9
284,9.306,465.2
285,9.297,465.5
286,9.288,465.8
287,9.279,466.2
288,9.270,466.5
289,9.261,466.8
290,9.252,467.0
291,9.243,467.3
292,9.234,467.6
293,9.225,467.9
294,9.216,468.2
295,9.208,468.5
296,9.199,468.8
297,9.190,469.1
298,9.181,469.3
299,9.172,469.6
300,9.164,469.9
301,9.155,470.2
302,9.146,470.4
303,9.137,470.7
304,9.129,471.2
305,9.120,471.3
306,9.111,471.5
307,9.103,471.8
308,9.094,472.1
309,9.085,472.5
310,9.077,472.8
311,9.068,473.0
312,9.059,473.2
313,9.051,473.5
314,9.042,473.8
315,9.034,474.1
316,9.025,474.3
317,9.017,474.6
318,9.008,474.9
319,9.000,475.2
320,8.991,475.4
321,8.983,475.6
322,8.974,475.8
323,8.966,476.2
324,8.957,476.3
325,8.949,476.7
326,8.940,476.8
327,8.932,477.1
328,8.923,477.4
329,8.915,477.7
330,8.907,477.9
331,8.898,478.1
332,8.890,478.3
333,8.882,478.5
334,8.873,478.8
335,8.865,479.1
336,8.857,479.4
337,8.849,479.6
338,8.840,479.9
339,8.832,480.2
340,8.824,480.5
341,8.816,480.7
342,8.808,480.9
343,8.800,481.1
344,8.792,481.5
345,8.784,481.6
346,8.776,481.7
347,8.768,481.9
348,8.760,482.1
349,8.752,482.4
350,8.744,482.7
351,8.737,482.9
352,8.729,483.0
353,8.721,483.1
354,8.713,483.4
355,8.706,483.6
356,8.698,483.9
357,8.691,484.2
358,8.683,484.3
359,8.676,484.5
360,8.668,484.8
361,8.661,484.9
362,8.653,485.1
363,8.646,485.4
364,8.639,485.5
365,8.631,485.7
366,8.624,485.9
367,8.617,486.1
368,8.610,486.3
369,8.603,486.6
370,8.596,486.9
371,8.589,487.0
372,8.582,487.1
373,8.574,487.2
374,8.567,487.5
375,8.561,487.7
376,8.554,487.8
377,8.547,488.0
378,8.540,488.2
379,8.533,488.4
380,8.526,488.5
381,8.519,488.7
382,8.512,488.9
383,8.505,489.0
384,8.498,489.3
385,8.491,489.5
386,8.484,489.6
387,8.478,489.8
388,8.471,490.1
389,8.464,490.2
390,8.457,490.4
391,8.450,490.5
392,8.443,490.6
393,8.436,490.9
394,8.429,491.1
395,8.422,491.3
396,8.415,491.4
397,8.409,491.6
398,8.402,491.8
399,8.395,492.0
400,8.388,492.1
401,8.381,492.3
402,8.374,492.4
403,8.367,492.7
404,8.360,493.2
405,8.353,493.3
406,8.345,493.3
407,8.338,493.6
408,8.331,493.8
409,8.324,493.9
410,8.317,494.0
411,8.310,494.1
412,8.303,494.3
413,8.296,494.6
414,8.289,494.7
415,8.282,494.9
416,8.275,495.1
417,8.268,495.3
418,8.261,495.5
419,8.254,495.8
420,8.247,496.0
421,8.241,496.1
422,8.234,496.2
423,8.227,496.2
424,8.220,496.4
425,8.213,496.6
426,8.206,496.9
427,8.199,497.0
428,8.193,497.1
429,8.186,497.4
430,8.179,497.5
431,8.172,497.6
432,8.166,497.8
433,8.159,498.0
434,8.152,498.1
435,8.146,498.3
436,8.139,498.4
437,8.132,498.5
438,8.126,498.7
439,8.119,498.8
440,8.113,499.1
441,8.106,499.2
442,8.100,499.3
443,8.093,499.4
444,8.087,499.5
445,8.080,499.7
446,8.074,499.9
447,8.067,499.9
448,8.061,500.1
449,8.055,500.2
450,8.048,500.2
451,8.042,500.4
452,8.036,500.5
453,8.029,500.7
454,8.023,500.9
455,8.017,501.2
456,8.010,501.2
457,8.004,501.3
458,7.998,501.5
459,7.991,501.6
460,7.985,501.7
461,7.979,501.9
462,7.972,502.1
463,7.966,502.1
464,7.960,502.3
465,7.953,502.5
466,7.947,502.5
467,7.941,502.7
468,7.935,502.7
469,7.928,502.8
470,7.922,503.0
471,7.916,503.0
472,7.909,503.1
473,7.903,503.2
474,7.897,503.3
475,7.891,503.5
476,7.884,503.7
477,7.878,503.8
478,7.872,503.8
479,7.866,503.9
480,7.859,504.1
481,7.853,504.3
482,7.847,504.5
483,7.841,504.5
484,7.835,504.7
485,7.829,504.8
486,7.822,504.8
487,7.816,504.8
488,7.810,505.1
489,7.804,505.3
490,7.798,505.3
491,7.792,505.5
492,7.786,505.6
493,7.781,505.7
494,7.775,505.9
495,7.769,506.0
496,7.763,506.0
497,7.757,506.0
498,7.752,506.3
499,7.746,506.4
500,7.740,506.6
501,7.735,506.7
502,7.729,506.7
503,7.724,506.7
504,7.718,506.8
505,7.713,506.9
506,7.708,507.2
507,7.702,507.3
508,7.697,507.5
509,7.692,507.5
510,7.687,507.6
511,7.681,507.9
512,7.676,507.9
513,7.671,508.0
514,7.666,508.0
515,7.661,508.1
516,7.656,508.4
517,7.651,508.4
518,7.647,508.6
519,7.642,508.6
520,7.637,508.7
521,7.632,508.8
522,7.627,508.9
523,7.622,509.0
524,7.618,509.1
525,7.613,509.2
526,7.608,509.3
527,7.604,509.5
528,7.599,509.4
529,7.594,509.5
530,7.590,509.7
531,7.585,509.8
532,7.580,509.9
533,7.576,510.0
534,7.571,510.1
535,7.566,510.1
536,7.562,510.3
537,7.557,510.3
538,7.553,510.5
539,7.548,510.6
540,7.544,510.7
541,7.539,510.9
542,7.534,511.0
543,7.530,510.9
544,7.525,511.2
545,7.521,511.2
546,7.516,511.4
547,7.511,511.5
548,7.507,511.6
549,7.502,511.7
550,7.498,511.7
551,7.493,511.7
552,7.489,511.7
553,7.484,511.9
554,7.479,511.9
555,7.475,512.1
556,7.470,512.3
557,7.466,512.4
558,7.461,512.3
559,7.456,512.5
560,7.452,512.7
561,7.447,512.6
562,7.443,512.6
563,7.438,512.8
564,7.433,512.9
565,7.429,512.8
566,7.424,512.9
567,7.420,513.1
568,7.415,513.0
569,7.410,513.1
570,7.406,513.3
571,7.401,513.4
572,7.396,513.4
573,7.392,513.6
574,7.387,513.7
575,7.383,513.7
576,7.378,513.8
577,7.373,513.9
578,7.369,514.2
579,7.364,514.2
580,7.359,514.2
581,7.355,514.4
582,7.350,514.3
583,7.345,514.4
584,7.341,514.6
585,7.336,514.6
586,7.332,514.6
587,7.327,514.7
588,7.322,514.8
589,7.318,515.0
590,7.313,515.1
591,7.309,515.1
592,7.304,515.0
593,7.299,515.1
594,7.295,515.2
595,7.290,515.4
596,7.286,515.4
597,7.281,515.6
598,7.277,515.6
599,7.272,515.5
600,7.268,515.6
601,7.263,515.7
602,7.259,515.8
603,7.254,515.8
604,7.250,516.0
605,7.246,516.1
606,7.241,516.1
607,7.237,516.1
608,7.233,516.2
609,7.228,516.2
610,7.224,516.3
611,7.220,516.4
612,7.216,516.5
613,7.211,516.5
614,7.207,516.6
615,7.203,516.6
616,7.199,516.7
617,7.195,516.9
618,7.191,516.9
619,7.187,516.8
620,7.183,516.9
621,7.179,517.0
622,7.175,517.1
623,7.171,517.1
624,7.167,517.1
625,7.163,517.3
626,7.159,517.3
627,7.155,517.4
628,7.151,517.5
629,7.148,517.6
630,7.144,517.7
631,7.140,517.7
632,7.136,517.7
633,7.133,517.7
634,7.129,517.8
635,7.125,517.9
636,7.122,518.0
637,7.118,518.0
638,7.115,518.1
639,7.111,518.0
640,7.108,518.1
641,7.104,518.2
642,7.101,518.2
643,7.097,518.3
644,7.094,518.5
645,7.090,518.6
646,7.087,518.5
647,7.084,518.6
648,7.080,518.6
649,7.077,518.9
650,7.074,518.8
651,7.071,518.9
652,7.067,519.0
653,7.064,518.9
654,7.061,518.9
655,7.058,519.0
656,7.054,519.0
657,7.051,519.1
658,7.048,519.3
659,7.045,519.3
660,7.042,519.4
661,7.039,519.4
662,7.035,519.4
663,7.032,519.5
664,7.029,519.4
665,7.026,519.5
666,7.023,519.6
667,7.020,519.7
668,7.016,519.8
669,7.013,519.8
670,7.010,519.9
671,7.007,519.8
672,7.004,520.0
673,7.000,520.0
674,6.997,520.1
675,6.994,520.1
676,6.990,520.2
677,6.987,520.2
678,6.984,520.3
679,6.980,520.3
680,6.977,520.3
681,6.973,520.3
682,6.970,520.3
683,6.966,520.6
684,6.963,520.6
685,6.959,520.5
686,6.956,520.7
687,6.952,520.7
688,6.948,520.6
689,6.945,520.8
690,6.941,520.9
691,6.937,520.9
692,6.933,520.9
693,6.930,521.1
694,6.926,521.2
695,6.922,521.1
696,6.918,521.2
697,6.915,521.3
698,6.911,521.3
699,6.907,521.3
700,6.903,521.4
701,6.900,521.4
702,6.896,521.5
703,6.892,521.5
704,6.889,521.5
705,6.885,521.6
706,6.881,521.7
707,6.878,521.6
708,6.874,521.8
709,6.871,521.7
710,6.867,521.8
711,6.864,521.8
712,6.860,521.9
713,6.857,522.1
714,6.854,522.1
715,6.850,522.1
716,6.847,522.2
717,6.844,522.2
718,6.841,522.1
719,6.838,522.2
720,6.835,522.2
721,6.832,522.2
722,6.829,522.4
723,6.826,522.4
724,6.823,522.5
725,6.820,522.5
726,6.818,522.6
727,6.815,522.7
728,6.812,522.6
729,6.810,522.7
730,6.807,522.7
731,6.805,522.7
732,6.802,522.7
733,6.800,522.7
734,6.797,522.8
735,6.795,522.9
736,6.793,522.9
737,6.790,522.9
738,6.788,523.1
739,6.786,523.1
740,6.783,523.1
741,6.781,523.2
742,6.779,523.2
743,6.777,523.2
744,6.774,523.2
745,6.772,523.2
746,6.770,523.4
747,6.768,523.4
748,6.765,523.5
749,6.763,523.4
750,6.761,523.4
751,6.759,523.5
752,6.756,523.5
753,6.754,523.5
754,6.752,523.6
755,6.750,523.6
756,6.747,523.7
757,6.745,523.7
758,6.743,523.7
759,6.741,523.8
760,6.738,523.7
761,6.736,523.8
762,6.734,524.0
763,6.731,524.0
764,6.729,524.0
765,6.726,524.1
766,6.724,524.1
767,6.722,524.1
768,6.719,524.2
769,6.717,524.3
770,6.714,524.3
771,6.712,524.3
772,6.709,524.4
773,6.707,524.3
774,6.704,524.3
775,6.702,524.3
776,6.699,524.4
777,6.697,524.5
778,6.694,524.5
779,6.692,524.5
780,6.689,524.6
781,6.687,524.7
782,6.684,524.7
783,6.681,524.7
784,6.679,524.9
785,6.676,524.9
786,6.673,524.8
787,6.671,524.9
788,6.668,524.9
789,6.665,524.9
790,6.663,525.0
791,6.660,525.0
792,6.657,524.9
793,6.655,525.0
794,6.652,525.1
795,6.649,525.1
796,6.646,525.2
797,6.644,525.3
798,6.641,525.3
799,6.638,525.2
800,6.635,525.2
801,6.633,525.3
802,6.630,525.4
803,6.627,525.4
804,6.624,525.4
805,6.621,525.5
806,6.618,525.5
807,6.616,525.6
808,6.613,525.6
809,6.610,525.6
810,6.607,525.7
811,6.604,525.6
812,6.601,525.7
813,6.598,525.7
814,6.596,525.7
815,6.593,525.8
816,6.590,525.7
817,6.587,525.8
818,6.584,526.0
819,6.581,525.9
820,6.578,526.1
821,6.575,526.1
822,6.573,526.1
823,6.570,526.2
824,6.567,526.2
825,6.564,526.2
826,6.561,526.3
827,6.558,526.3
828,6.555,526.3
829,6.553,526.3
830,6.550,526.6
831,6.547,526.5
832,6.544,526.5
833,6.541,526.5
834,6.538,526.4
835,6.536,526.6
836,6.533,526.7
837,6.530,526.7
838,6.527,526.6
839,6.525,526.7
840,6.522,526.8
841,6.519,526.8
842,6.516,526.8
843,6.514,526.8
844,6.511,526.8
845,6.508,526.9
846,6.506,526.9
847,6.503,526.9
848,6.501,526.9
849,6.498,526.9
850,6.496,527.0
851,6.493,527.0
852,6.491,527.0
853,6.488,527.0
854,6.486,527.1
855,6.483,527.1
856,6.481,527.2
857,6.479,527.3
858,6.476,527.3
859,6.474,527.2
860,6.472,527.2
861,6.470,527.3
862,6.468,527.4
863,6.466,527.4
864,6.463,527.5
865,6.461,527.4
866,6.459,527.5
867,6.457,527.5
868,6.456,527.5
869,6.454,527.5
870,6.452,527.5
871,6.450,527.7
872,6.448,527.6
873,6.446,527.7
874,6.444,527.7
875,6.443,527.6
876,6.441,527.7
877,6.439,527.6
878,6.437,527.7
879,6.435,527.8
880,6.434,527.8
881,6.432,527.8
882,6.430,527.9
883,6.428,527.9
884,6.426,527.9
885,6.425,527.9
886,6.423,528.0
887,6.421,527.8
888,6.419,528.0
889,6.417,527.9
890,6.416,527.9
891,6.414,528.0
892,6.412,528.0
893,6.410,528.1
894,6.408,528.1
895,6.406,528.2
896,6.404,528.3
897,6.402,528.3
898,6.400,528.3
899,6.398,528.4
900,6.396,528.3
901,6.394,528.4
902,6.391,528.4
903,6.389,528.5
904,6.387,528.4
905,6.385,528.4
906,6.383,528.4
907,6.380,528.5
908,6.378,528.5
909,6.376,528.6
910,6.373,528.6
911,6.371,528.6
912,6.369,528.6
913,6.367,528.7
914,6.364,528.6
915,6.362,528.6
916,6.360,528.6
917,6.357,528.6
918,6.355,528.7
919,6.353,528.7
920,6.351,528.6
921,6.348,528.7
922,6.346,528.8
923,6.344,528.7
924,6.342,528.7
925,6.340,528.8
926,6.338,528.8
927,6.336,528.8
928,6.334,528.8
929,6.332,528.8
930,6.330,528.9
931,6.328,528.9
932,6.326,529.0
933,6.324,529.0
934,6.323,529.0
935,6.321,529.1
936,6.319,529.0
937,6.318,529.1
938,6.316,529.1
939,6.315,529.1
940,6.313,529.1
941,6.312,529.2
942,6.310,529.2
943,6.309,529.2
944,6.308,529.2
945,6.306,529.2
946,6.305,529.1
947,6.304,529.2
948,6.302,529.3
949,6.301,529.2
950,6.300,529.3
951,6.299,529.3
952,6.297,529.3
953,6.296,529.4
954,6.295,529.3
955,6.293,529.4
956,6.292,529.4
957,6.291,529.4
958,6.289,529.3
959,6.288,529.3
960,6.287,529.4
961,6.285,529.5
962,6.284,529.5
963,6.282,529.5
964,6.281,529.5
965,6.279,529.5
966,6.278,529.6
967,6.276,529.5
968,6.274,529.6
969,6.272,529.6
970,6.271,529.6
971,6.269,529.6
972,6.267,529.7
973,6.265,529.6
974,6.263,529.7
975,6.261,529.7
976,6.259,529.8
977,6.257,529.8
978,6.254,529.7
979,6.252,529.8
980,6.250,529.8
981,6.248,529.8
982,6.245,529.9
983,6.243,529.9
984,6.241,529.9
985,6.239,530.0
986,6.236,530.0
987,6.234,529.9
988,6.232,530.0
989,6.229,530.1
990,6.227,530.1
991,6.225,530.1
992,6.222,530.1
993,6.220,530.0
994,6.218,530.0
995,6.216,530.1
996,6.213,530.2
997,6.211,530.1
998,6.209,530.1
999,6.207,530.1
1000,6.205,530.1
1001,6.203,530.2
1002,6.201,530.3
1003,6.199,530.3
1004,6.197,530.3
1005,6.195,530.3
1006,6.193,530.2
1007,6.191,530.3
1008,6.190,530.4
1009,6.188,530.4
1010,6.186,530.3
1011,6.185,530.3
1012,6.183,530.3
1013,6.182,530.5
1014,6.180,530.5
1015,6.179,530.4
1016,6.178,530.5
1017,6.176,530.5
1018,6.175,530.5
1019,6.174,530.5
1020,6.172,530.5
1021,6.171,530.6
1022,6.170,530.6
1023,6.169,530.6
1024,6.167,530.6
1025,6.166,530.6
1026,6.165,530.7
1027,6.164,530.7
1028,6.163,530.7
1029,6.161,530.7
1030,6.160,530.7
1031,6.159,530.7
1032,6.158,530.8
1033,6.156,530.8
1034,6.155,530.8
1035,6.154,530.9
1036,6.153,530.9
1037,6.151,530.8
1038,6.150,530.7
1039,6.149,530.8
1040,6.147,530.7
1041,6.146,530.8
1042,6.144,530.8
1043,6.143,530.9
1044,6.141,530.9
1045,6.140,530.9
1046,6.138,531.0
1047,6.136,531.0
1048,6.135,531.0
1049,6.133,531.1
1050,6.131,531.0
1051,6.130,531.2
1052,6.128,531.1
1053,6.126,531.0
1054,6.124,531.2
1055,6.123,531.2
1056,6.121,531.3
1057,6.119,531.2
1058,6.117,531.2
1059,6.115,531.2
1060,6.114,531.3
1061,6.112,531.2
1062,6.110,531.3
1063,6.108,531.3
1064,6.107,531.3
1065,6.105,531.3
1066,6.103,531.3
1067,6.102,531.3
1068,6.100,531.3
1069,6.098,531.4
1070,6.097,531.4
1071,6.095,531.5
1072,6.094,531.4
1073,6.092,531.4
1074,6.091,531.4
1075,6.089,531.4
1076,6.088,531.4
1077,6.087,531.4
1078,6.086,531.5
1079,6.084,531.5
1080,6.083,531.5
1081,6.082,531.5
1082,6.081,531.5
1083,6.080,531.5
1084,6.079,531.5
1085,6.078,531.6
1086,6.077,531.6
1087,6.076,531.6
1088,6.075,531.6
1089,6.074,531.6
1090,6.073,531.6
1091,6.073,531.6
1092,6.072,531.6
1093,6.071,531.7
1094,6.070,531.6
1095,6.069,531.7
1096,6.069,531.8
1097,6.068,531.7
1098,6.067,531.7
1099,6.066,531.7
1100,6.065,531.7
1101,6.065,531.8
1102,6.064,531.8
1103,6.063,531.8
1104,6.062,531.8
1105,6.062,531.8
1106,6.061,531.8
1107,6.060,531.9
1108,6.059,531.9
1109,6.058,532.0
1110,6.057,532.0
1111,6.056,532.0
1112,6.055,531.9
1113,6.054,532.1
1114,6.053,532.0
1115,6.052,532.0
1116,6.051,532.0
1117,6.050,532.0
1118,6.049,532.2
1119,6.048,532.1
1120,6.046,532.1
1121,6.045,532.1
1122,6.044,532.1
1123,6.043,532.1
1124,6.041,532.2
1125,6.040,532.2
1126,6.039,532.3
1127,6.038,532.3
1128,6.036,532.2
1129,6.035,532.2
1130,6.034,532.3
1131,6.032,532.2
1132,6.031,532.1
1133,6.030,532.3
1134,6.028,532.3
1135,6.027,532.3
1136,6.026,532.4
1137,6.024,532.5
1138,6.023,532.4
1139,6.022,532.4
1140,6.021,532.5
1141,6.019,532.5
1142,6.018,532.5
1143,6.017,532.5
1144,6.016,532.5
1145,6.015,532.5
1146,6.014,532.5
1147,6.013,532.5
1148,6.012,532.6
1149,6.011,532.6
1150,6.010,532.6
1151,6.009,532.7
1152,6.008,532.6
1153,6.007,532.6
1154,6.006,532.6
1155,6.006,532.7
1156,6.005,532.7
1157,6.004,532.8
1158,6.003,532.7
1159,6.003,532.7
1160,6.002,532.7
1161,6.001,532.7
1162,6.000,532.8
1163,6.000,532.7
1164,5.999,532.7
1165,5.998,532.7
1166,5.998,532.7
1167,5.997,532.8
1168,5.996,532.9
1169,5.996,532.8
1170,5.995,532.9
1171,5.994,532.9
1172,5.993,532.9
1173,5.992,532.9
1174,5.992,532.9
1175,5.991,532.9
1176,5.990,532.9
1177,5.989,532.9
1178,5.988,532.9
1179,5.987,532.9
1180,5.986,532.9
1181,5.985,533.0
1182,5.984,533.0
1183,5.983,533.0
1184,5.982,532.9
1185,5.980,533.0
1186,5.979,533.1
1187,5.978,533.1
1188,5.976,533.1
1189,5.975,533.0
1190,5.973,533.1
1191,5.972,533.1
1192,5.970,533.1
1193,5.968,533.0
1194,5.967,533.0
1195,5.965,533.1
1196,5.963,533.0
1197,5.962,533.1
1198,5.960,533.1
1199,5.958,533.1
1200,5.956,533.1
1201,5.954,533.2
1202,5.953,533.1
1203,5.951,533.1
1204,5.949,533.3
1205,5.947,533.3
1206,5.945,533.3
1207,5.943,533.2
1208,5.941,533.3
1209,5.940,533.3
1210,5.938,533.3
1211,5.936,533.3
1212,5.934,533.4
1213,5.932,533.4
1214,5.930,533.4
1215,5.929,533.3
1216,5.927,533.3
1217,5.925,533.4
1218,5.924,533.4
1219,5.922,533.3
1220,5.920,533.4
1221,5.919,533.3
1222,5.917,533.4
1223,5.916,533.4
1224,5.914,533.4
1225,5.913,533.4
1226,5.911,533.4
