Time (s),Mass (g),TC back 1 (K)
0,11.175,297.6
1,11.173,297.6
2,11.170,297.5
3,11.168,297.6
4,11.165,297.7
5,11.162,297.6
6,11.159,297.7
7,11.156,297.7
8,11.152,297.4
9,11.149,297.4
10,11.145,297.4
11,11.141,297.4
12,11.137,297.4
13,11.133,297.4
14,11.128,297.5
15,11.124,297.5
16,11.119,297.4
17,11.114,297.5
18,11.108,297.7
19,11.103,297.7
20,11.097,297.8
21,11.091,297.8
22,11.085,297.9
23,11.079,298.0
24,11.072,298.1
25,11.065,298.3
26,11.058,298.6
27,11.050,298.7
28,11.043,299.0
29,11.035,299.3
30,11.026,299.7
31,11.018,300.0
32,11.009,300.5
33,11.000,300.9
34,10.991,301.2
35,10.981,301.6
36,10.971,302.1
37,10.961,302.6
38,10.950,303.1
39,10.939,303.7
40,10.928,304.2
41,10.917,304.9
42,10.905,305.5
43,10.893,305.9
44,10.881,306.6
45,10.869,307.3
46,10.857,308.0
47,10.844,308.7
48,10.832,309.6
49,10.819,310.4
50,10.806,311.2
51,10.793,311.9
52,10.779,312.7
53,10.766,313.5
54,10.753,314.3
55,10.739,315.2
56,10.726,316.0
57,10.712,316.9
58,10.699,317.7
59,10.685,318.6
60,10.671,319.4
61,10.658,320.3
62,10.644,321.2
63,10.631,322.2
64,10.617,323.1
65,10.604,324.0
66,10.590,324.9
67,10.577,325.7
68,10.564,326.8
69,10.551,327.8
70,10.538,328.7
71,10.525,329.7
72,10.513,330.7
73,10.500,331.6
74,10.488,332.5
75,10.476,333.4
76,10.464,334.5
77,10.452,335.5
78,10.440,336.5
79,10.429,337.5
80,10.417,338.5
81,10.406,339.3
82,10.395,340.3
83,10.384,341.4
84,10.373,342.4
85,10.362,343.2
86,10.351,344.2
87,10.340,345.1
88,10.330,346.1
89,10.319,347.1
90,10.309,348.0
91,10.298,348.9
92,10.288,349.9
93,10.278,350.9
94,10.268,351.9
95,10.257,352.8
96,10.247,353.7
97,10.237,354.7
98,10.227,355.7
99,10.217,356.6
100,10.208,357.5
101,10.198,358.3
102,10.188,359.2
103,10.178,360.2
104,10.168,361.0
105,10.158,361.9
106,10.149,362.8
107,10.139,363.7
108,10.129,364.6
109,10.119,365.5
110,10.109,366.4
111,10.099,367.3
112,10.089,368.2
113,10.080,368.9
114,10.070,369.8
115,10.060,370.6
116,10.050,371.5
117,10.040,372.4
118,10.030,373.3
119,10.021,374.2
120,10.011,375.0
121,10.001,375.8
122,9.991,376.6
123,9.981,377.5
124,9.972,378.3
125,9.962,379.1
126,9.952,379.9
127,9.943,380.7
128,9.933,381.6
129,9.923,382.3
130,9.914,383.0
131,9.904,383.8
132,9.895,384.5
133,9.885,385.4
134,9.876,386.2
135,9.867,386.9
136,9.857,387.8
137,9.848,388.6
138,9.839,389.4
139,9.830,390.3
140,9.820,391.2
141,9.811,391.8
142,9.802,392.5
143,9.793,393.2
144,9.784,393.9
145,9.776,394.6
146,9.767,395.4
147,9.758,396.1
148,9.749,396.7
149,9.741,397.5
150,9.732,398.2
151,9.724,398.8
152,9.715,399.5
153,9.707,400.1
154,9.698,400.8
155,9.690,401.6
156,9.682,402.1
157,9.673,402.8
158,9.665,403.4
159,9.657,404.1
160,9.648,404.7
161,9.640,405.3
162,9.632,405.9
163,9.624,406.5
164,9.616,407.1
165,9.608,407.9
166,9.600,408.5
167,9.592,409.0
168,9.583,409.6
169,9.575,410.2
170,9.567,410.7
171,9.559,411.4
172,9.551,411.9
173,9.543,412.4
174,9.535,413.0
175,9.527,413.6
176,9.519,414.1
177,9.511,414.6
178,9.503,415.2
179,9.494,415.7
180,9.486,416.3
181,9.478,416.9
182,9.470,417.3
183,9.462,417.9
184,9.453,418.4
185,9.445,418.9
186,9.437,419.3
187,9.429,419.9
188,9.420,420.5
189,9.412,421.0
190,9.404,421.5
191,9.395,421.8
192,9.387,422.3
193,9.379,422.8
194,9.370,423.3
195,9.362,423.8
196,9.354,424.6
197,9.345,424.9
198,9.337,425.3
199,9.329,425.7
200,9.320,426.0
201,9.312,426.4
202,9.304,427.0
203,9.295,427.3
204,9.287,427.7
205,9.279,428.1
206,9.270,428.5
207,9.262,429.0
208,9.254,429.3
209,9.245,429.7
210,9.237,430.1
211,9.229,430.6
212,9.220,430.9
213,9.212,431.4
214,9.204,431.8
215,9.196,432.2
216,9.188,432.6
217,9.179,432.9
218,9.171,433.5
219,9.163,433.8
220,9.155,434.1
221,9.147,434.7
222,9.139,435.0
223,9.130,435.3
224,9.122,435.7
225,9.114,436.1
226,9.106,436.5
227,9.098,437.0
228,9.090,437.8
229,9.082,437.6
230,9.074,437.9
231,9.066,438.2
232,9.058,438.6
233,9.050,439.0
234,9.043,439.3
235,9.035,439.7
236,9.027,440.0
237,9.019,440.5
238,9.011,440.8
239,9.003,441.3
240,8.996,441.6
241,8.988,442.0
242,8.980,442.4
243,8.973,442.7
244,8.965,443.1
245,8.957,443.4
246,8.950,443.8
247,8.942,444.1
248,8.935,444.5
249,8.927,444.7
250,8.919,445.1
251,8.912,445.5
252,8.905,445.8
253,8.897,446.1
254,8.890,446.3
255,8.882,446.7
256,8.875,447.0
257,8.868,447.4
258,8.860,447.7
259,8.853,448.0
260,8.846,448.3
261,8.838,448.6
262,8.831,448.9
263,8.824,449.4
264,8.817,449.6
265,8.809,449.7
266,8.802,450.1
267,8.795,450.5
268,8.788,450.8
269,8.780,451.2
270,8.773,451.5
271,8.766,451.8
272,8.759,452.1
273,8.752,452.2
274,8.744,452.7
275,8.737,452.9
276,8.730,453.2
277,8.723,453.5
278,8.715,453.9
279,8.708,454.0
280,8.701,454.4
281,8.693,454.7
282,8.686,454.8
283,8.679,455.3
284,8.671,455.4
285,8.664,456.0
286,8.656,456.0
287,8.649,456.4
288,8.642,456.7
289,8.634,457.0
290,8.627,457.2
291,8.619,457.5
292,8.611,457.7
293,8.604,458.1
294,8.596,458.1
295,8.589,458.5
296,8.581,458.9
297,8.573,458.9
298,8.566,459.3
299,8.558,459.6
300,8.550,459.9
301,8.543,460.0
302,8.535,460.3
303,8.527,460.7
304,8.520,460.9
305,8.512,461.2
306,8.504,461.4
307,8.497,461.5
308,8.489,462.0
309,8.481,462.2
310,8.474,462.3
311,8.466,462.6
312,8.458,462.8
313,8.451,463.1
314,8.443,463.3
315,8.436,463.6
316,8.428,463.8
317,8.420,464.1
318,8.413,464.4
319,8.405,464.6
320,8.398,464.8
321,8.390,465.0
322,8.383,465.1
323,8.376,465.5
324,8.368,465.8
325,8.361,466.0
326,8.353,466.2
327,8.346,466.4
328,8.339,466.6
329,8.332,466.9
330,8.324,467.1
331,8.317,467.5
332,8.310,467.6
333,8.303,467.7
334,8.296,468.2
335,8.289,468.0
336,8.281,468.3
337,8.274,468.5
338,8.267,468.7
339,8.260,469.0
340,8.253,469.2
341,8.246,469.5
342,8.239,469.7
343,8.232,469.8
344,8.225,470.1
345,8.218,470.3
346,8.211,470.6
347,8.204,470.8
348,8.197,470.8
349,8.190,471.2
350,8.182,471.4
351,8.175,471.5
352,8.168,471.9
353,8.161,472.1
354,8.154,472.4
355,8.147,472.4
356,8.140,472.8
357,8.133,472.9
358,8.126,473.1
359,8.118,473.2
360,8.111,473.4
361,8.104,473.6
362,8.097,473.9
363,8.090,474.1
364,8.082,474.3
365,8.075,474.5
366,8.068,474.6
367,8.061,474.8
368,8.053,474.9
369,8.046,475.1
370,8.039,475.3
371,8.032,475.7
372,8.024,475.8
373,8.017,476.0
374,8.010,476.3
375,8.003,476.4
376,7.996,476.4
377,7.988,476.6
378,7.981,476.9
379,7.974,477.1
380,7.967,477.5
381,7.960,477.6
382,7.953,477.6
383,7.946,478.0
384,7.938,478.1
385,7.931,478.2
386,7.924,478.3
387,7.917,478.6
388,7.910,478.8
389,7.904,478.9
390,7.897,479.3
391,7.890,479.4
392,7.883,479.6
393,7.876,479.7
394,7.869,479.9
395,7.863,480.1
396,7.856,480.3
397,7.849,480.6
398,7.843,480.8
399,7.836,480.9
400,7.830,481.0
401,7.823,481.2
402,7.817,481.4
403,7.811,481.4
404,7.804,481.8
405,7.798,481.9
406,7.792,481.9
407,7.785,482.2
408,7.779,482.4
409,7.773,482.5
410,7.767,482.7
411,7.761,482.7
412,7.755,482.8
413,7.749,482.9
414,7.743,483.1
415,7.737,483.2
416,7.731,483.4
417,7.725,483.7
418,7.719,483.9
419,7.713,484.1
420,7.707,484.5
421,7.701,484.5
422,7.695,484.6
423,7.689,484.8
424,7.683,485.0
425,7.678,484.9
426,7.672,485.2
427,7.666,485.3
428,7.660,485.3
429,7.655,485.5
430,7.649,485.7
431,7.643,485.8
432,7.637,486.0
433,7.632,486.0
434,7.626,486.4
435,7.620,486.6
436,7.615,486.6
437,7.609,486.6
438,7.603,486.8
439,7.598,486.9
440,7.592,487.0
441,7.586,487.2
442,7.581,487.4
443,7.575,487.6
444,7.569,487.6
445,7.564,487.7
446,7.558,487.9
447,7.553,488.0
448,7.547,488.2
449,7.542,488.4
450,7.536,488.5
451,7.531,488.7
452,7.525,488.8
453,7.520,489.0
454,7.515,489.1
455,7.509,489.2
456,7.504,489.2
457,7.498,489.5
458,7.493,489.8
459,7.488,489.7
460,7.482,489.9
461,7.477,490.0
462,7.472,490.0
463,7.467,490.1
464,7.461,490.3
465,7.456,490.4
466,7.451,490.7
467,7.446,490.9
468,7.441,490.9
469,7.436,491.0
470,7.430,491.3
471,7.425,491.2
472,7.420,491.2
473,7.415,491.2
474,7.410,491.5
475,7.405,491.5
476,7.400,491.6
477,7.395,491.7
478,7.390,491.9
479,7.386,492.2
480,7.381,492.3
481,7.376,492.5
482,7.371,492.5
483,7.366,492.6
484,7.361,492.7
485,7.356,492.8
486,7.352,493.0
487,7.347,493.1
488,7.342,493.3
489,7.337,493.5
490,7.333,493.7
491,7.328,493.6
492,7.323,493.7
493,7.318,493.8
494,7.314,493.9
495,7.309,494.1
496,7.304,494.1
497,7.300,494.3
498,7.295,494.4
499,7.290,494.5
500,7.286,494.6
501,7.281,494.8
502,7.277,495.0
503,7.272,495.0
504,7.267,495.1
505,7.263,495.2
506,7.258,495.4
507,7.254,495.7
508,7.249,495.8
509,7.245,495.9
510,7.240,496.0
511,7.235,496.1
512,7.231,496.2
513,7.226,496.3
514,7.222,496.4
515,7.218,496.4
516,7.213,496.5
517,7.209,496.7
518,7.204,496.8
519,7.200,496.9
520,7.195,497.0
521,7.191,497.1
522,7.187,497.2
523,7.182,497.3
524,7.178,497.7
525,7.173,497.6
526,7.169,497.6
527,7.165,497.6
528,7.161,497.7
529,7.156,497.8
530,7.152,497.8
531,7.148,498.0
532,7.144,498.1
533,7.139,498.2
534,7.135,498.3
535,7.131,498.3
536,7.127,498.5
537,7.123,498.6
538,7.119,498.6
539,7.115,498.7
540,7.111,498.8
541,7.107,498.9
542,7.102,499.0
543,7.098,499.0
544,7.095,499.2
545,7.091,499.3
546,7.087,499.4
547,7.083,499.4
548,7.079,499.5
549,7.075,499.6
550,7.071,499.6
551,7.067,499.6
552,7.063,499.8
553,7.059,500.1
554,7.055,500.1
555,7.052,500.1
556,7.048,500.3
557,7.044,500.4
558,7.040,500.5
559,7.036,500.6
560,7.032,500.8
561,7.029,500.6
562,7.025,500.7
563,7.021,500.7
564,7.017,500.7
565,7.013,500.8
566,7.009,500.8
567,7.006,501.1
568,7.002,501.1
569,6.998,501.2
570,6.994,501.2
571,6.990,501.3
572,6.987,501.4
573,6.983,501.5
574,6.979,501.8
575,6.975,501.8
576,6.971,501.7
577,6.967,501.9
578,6.964,502.0
579,6.960,502.0
580,6.956,502.1
581,6.952,502.2
582,6.948,502.3
583,6.944,502.4
584,6.941,502.5
585,6.937,502.4
586,6.933,502.6
587,6.929,502.7
588,6.925,503.0
589,6.921,503.0
590,6.918,502.9
591,6.914,502.8
592,6.910,503.0
593,6.906,503.1
594,6.902,503.1
595,6.899,503.2
596,6.895,503.5
597,6.891,503.5
598,6.888,503.5
599,6.884,503.7
600,6.880,503.9
601,6.877,503.8
602,6.873,503.8
603,6.869,503.8
604,6.866,504.0
605,6.862,503.9
606,6.859,504.0
607,6.855,504.1
608,6.852,504.2
609,6.848,504.3
610,6.845,504.2
611,6.842,504.4
612,6.838,504.5
613,6.835,504.5
614,6.832,504.6
615,6.828,504.7
616,6.825,504.8
617,6.822,504.9
618,6.819,504.9
619,6.816,504.9
620,6.812,504.8
621,6.809,504.9
622,6.806,505.0
623,6.803,505.0
624,6.800,505.1
625,6.797,505.3
626,6.794,505.3
627,6.791,505.5
628,6.788,505.5
629,6.785,505.6
630,6.782,505.6
631,6.779,505.6
632,6.776,505.7
633,6.773,505.8
634,6.770,505.9
635,6.767,505.8
636,6.764,505.9
637,6.761,505.9
638,6.759,505.8
639,6.756,506.0
640,6.753,506.1
641,6.750,506.3
642,6.747,506.3
643,6.744,506.3
644,6.741,506.5
645,6.738,506.7
646,6.735,506.7
647,6.732,506.7
648,6.729,506.8
649,6.726,506.8
650,6.723,506.9
651,6.720,506.9
652,6.718,507.0
653,6.715,506.9
654,6.712,507.0
655,6.709,507.1
656,6.706,507.2
657,6.703,507.2
658,6.700,507.2
659,6.697,507.4
660,6.694,507.4
661,6.691,507.4
662,6.688,507.6
663,6.685,507.7
664,6.682,507.7
665,6.679,507.8
666,6.676,507.9
667,6.672,508.0
668,6.669,507.9
669,6.666,508.0
670,6.663,508.0
671,6.660,507.9
672,6.657,508.0
673,6.654,508.2
674,6.651,508.1
675,6.648,508.2
676,6.645,508.2
677,6.642,508.4
678,6.639,508.4
679,6.635,508.5
680,6.632,508.6
681,6.629,508.6
682,6.626,508.6
683,6.623,508.6
684,6.620,508.7
685,6.617,508.6
686,6.613,508.7
687,6.610,508.9
688,6.607,508.8
689,6.604,509.0
690,6.601,509.0
691,6.597,509.2
692,6.594,509.2
693,6.591,509.2
694,6.588,509.3
695,6.585,509.4
696,6.582,509.4
697,6.579,509.3
698,6.575,509.4
699,6.572,509.4
700,6.569,509.6
701,6.566,509.6
702,6.563,509.5
703,6.560,509.5
704,6.557,509.6
705,6.554,509.7
706,6.551,509.8
707,6.548,509.7
708,6.545,509.7
709,6.542,509.7
710,6.539,509.8
711,6.536,510.0
712,6.534,510.0
713,6.531,510.1
714,6.528,510.2
715,6.525,510.1
716,6.523,510.3
717,6.520,510.3
718,6.517,510.3
719,6.515,510.4
720,6.512,510.4
721,6.509,510.4
722,6.507,510.5
723,6.504,510.6
724,6.502,510.7
725,6.500,510.8
726,6.497,510.9
727,6.495,510.9
728,6.492,511.0
729,6.490,510.9
730,6.488,510.9
731,6.486,511.1
732,6.483,511.1
733,6.481,511.2
734,6.479,511.2
735,6.477,511.3
736,6.474,511.2
737,6.472,511.3
738,6.470,511.3
739,6.468,511.2
740,6.466,511.2
741,6.464,511.2
742,6.461,511.4
743,6.459,511.5
744,6.457,511.4
745,6.455,511.4
746,6.453,511.5
747,6.451,511.4
748,6.449,511.4
749,6.447,511.6
750,6.445,511.8
751,6.443,511.8
752,6.440,512.0
753,6.438,511.9
754,6.436,511.9
755,6.434,512.0
756,6.432,511.8
757,6.430,511.8
758,6.428,512.0
759,6.426,512.0
760,6.423,511.9
761,6.421,512.0
762,6.419,512.1
763,6.417,512.2
764,6.415,512.3
765,6.413,512.1
766,6.410,512.2
767,6.408,512.2
768,6.406,512.3
769,6.404,512.4
770,6.402,512.4
771,6.399,512.4
772,6.397,512.4
773,6.395,512.5
774,6.393,512.5
775,6.391,512.6
776,6.388,512.6
777,6.386,512.6
778,6.384,512.8
779,6.382,512.8
780,6.379,512.8
781,6.377,512.7
782,6.375,512.8
783,6.372,512.8
784,6.370,512.8
785,6.368,512.9
786,6.365,512.9
787,6.363,513.1
788,6.361,513.0
789,6.358,513.1
790,6.356,513.2
791,6.354,513.2
792,6.351,513.3
793,6.349,513.3
794,6.347,513.2
795,6.344,513.4
796,6.342,513.4
797,6.339,513.4
798,6.337,513.5
799,6.334,513.5
800,6.332,513.5
801,6.330,513.5
802,6.327,513.7
803,6.325,513.7
804,6.322,513.7
805,6.320,513.9
806,6.318,513.8
807,6.315,513.9
808,6.313,513.8
809,6.310,513.8
810,6.308,513.8
811,6.305,513.8
812,6.303,513.9
813,6.301,513.9
814,6.298,513.8
815,6.296,514.0
816,6.293,514.1
817,6.291,514.1
818,6.289,514.1
819,6.286,514.1
820,6.284,514.1
821,6.282,514.1
822,6.279,514.3
823,6.277,514.3
824,6.275,514.3
825,6.272,514.4
826,6.270,514.5
827,6.268,514.4
828,6.265,514.4
829,6.263,514.5
830,6.261,514.5
831,6.259,514.5
832,6.256,514.6
833,6.254,514.5
834,6.252,514.6
835,6.250,514.8
836,6.248,514.7
837,6.246,514.8
838,6.243,514.8
839,6.241,514.7
840,6.239,514.7
841,6.237,514.6
842,6.235,514.8
843,6.233,514.9
844,6.231,514.8
845,6.229,514.8
846,6.227,514.9
847,6.224,515.0
848,6.222,515.0
849,6.220,515.1
850,6.218,515.2
851,6.216,515.1
852,6.214,515.0
853,6.212,515.1
854,6.210,515.1
855,6.208,515.1
856,6.206,515.1
857,6.204,515.2
858,6.202,515.2
859,6.201,515.4
860,6.199,515.4
861,6.197,515.4
862,6.195,515.4
863,6.193,515.4
864,6.191,515.6
865,6.189,515.6
866,6.187,515.6
867,6.185,515.6
868,6.183,515.6
869,6.182,515.6
870,6.180,515.7
871,6.178,515.6
872,6.176,515.7
873,6.174,515.6
874,6.172,515.6
875,6.171,515.8
876,6.169,515.9
877,6.167,515.8
878,6.165,515.8
879,6.163,515.9
880,6.162,516.0
881,6.160,515.8
882,6.158,515.8
883,6.156,515.9
884,6.155,516.0
885,6.153,516.1
886,6.151,516.0
887,6.150,516.1
888,6.148,516.0
889,6.146,516.1
890,6.145,516.3
891,6.143,516.3
892,6.141,516.3
893,6.140,516.3
894,6.138,516.2
895,6.137,516.4
896,6.135,516.4
897,6.133,516.4
898,6.132,516.5
899,6.130,516.4
900,6.129,516.5
901,6.127,516.5
902,6.126,516.6
903,6.124,516.6
904,6.123,516.6
905,6.121,516.6
906,6.120,516.6
907,6.118,516.7
908,6.117,516.8
909,6.115,516.7
910,6.114,516.7
911,6.112,516.8
912,6.111,516.8
913,6.109,516.9
914,6.108,516.9
915,6.107,516.9
916,6.105,517.0
917,6.104,516.9
918,6.102,516.9
919,6.101,517.0
920,6.099,517.1
921,6.098,517.1
922,6.097,517.1
923,6.095,517.1
924,6.094,517.0
925,6.092,517.0
926,6.091,516.9
927,6.089,517.0
928,6.088,517.1
929,6.087,517.1
930,6.085,517.3
931,6.084,517.3
932,6.082,517.2
933,6.081,517.2
934,6.079,517.2
935,6.078,517.3
936,6.076,517.4
937,6.075,517.4
938,6.073,517.4
939,6.072,517.5
940,6.071,517.6
941,6.069,517.6
942,6.068,517.5
943,6.066,517.5
944,6.065,517.4
945,6.063,517.5
946,6.062,517.5
947,6.060,517.6
948,6.059,517.6
949,6.057,517.7
950,6.056,517.7
951,6.054,517.7
952,6.053,517.7
953,6.051,517.8
954,6.050,517.8
955,6.048,517.7
956,6.047,517.8
957,6.046,517.8
958,6.044,517.8
959,6.043,517.7
960,6.041,517.8
961,6.040,517.9
962,6.039,518.0
963,6.037,518.0
964,6.036,518.0
965,6.034,518.0
966,6.033,518.0
967,6.032,518.0
968,6.030,518.2
969,6.029,518.1
970,6.028,518.2
971,6.026,518.3
972,6.025,518.3
973,6.024,518.3
974,6.023,518.3
975,6.021,518.3
976,6.020,518.3
977,6.019,518.4
978,6.018,518.4
979,6.016,518.4
980,6.015,518.5
981,6.014,518.4
982,6.013,518.4
983,6.012,518.4
984,6.010,518.5
985,6.009,518.5
986,6.008,518.4
987,6.007,518.5
988,6.005,518.6
989,6.004,518.7
990,6.003,518.7
991,6.002,518.6
992,6.001,518.7
993,5.999,518.7
994,5.998,518.8
995,5.997,518.7
996,5.996,518.7
997,5.994,518.7
998,5.993,518.6
999,5.992,518.6
1000,5.990,518.6
1001,5.989,518.8
1002,5.988,518.9
1003,5.986,518.9
1004,5.985,518.9
1005,5.984,519.0
1006,5.982,519.0
1007,5.981,519.0
1008,5.980,519.1
1009,5.978,519.1
1010,5.977,519.1
1011,5.975,519.1
1012,5.974,519.1
1013,5.972,519.2
1014,5.971,519.1
1015,5.969,519.1
1016,5.968,519.1
1017,5.966,519.1
1018,5.965,519.1
1019,5.963,519.2
1020,5.962,519.3
1021,5.960,519.3
1022,5.959,519.3
1023,5.957,519.2
1024,5.956,519.2
1025,5.954,519.3
1026,5.953,519.4
1027,5.951,519.4
1028,5.949,519.5
1029,5.948,519.5
1030,5.946,519.4
1031,5.945,519.4
1032,5.943,519.5
1033,5.942,519.5
1034,5.940,519.5
1035,5.939,519.5
1036,5.937,519.5
1037,5.936,519.6
1038,5.934,519.6
1039,5.933,519.6
1040,5.931,519.7
1041,5.930,519.6
1042,5.928,519.7
1043,5.927,519.7
1044,5.926,519.7
1045,5.924,519.8
1046,5.923,519.8
1047,5.921,519.9
1048,5.920,519.8
1049,5.919,519.9
1050,5.917,520.0
1051,5.916,520.1
1052,5.914,520.0
1053,5.913,520.0
1054,5.912,520.0
1055,5.910,520.0
1056,5.909,520.1
1057,5.908,520.1
1058,5.907,520.1
1059,5.905,520.2
1060,5.904,520.1
1061,5.903,520.2
1062,5.901,520.2
1063,5.900,520.2
1064,5.899,520.2
1065,5.898,520.3
1066,5.896,520.3
1067,5.895,520.4
1068,5.894,520.4
1069,5.893,520.4
1070,5.891,520.4
1071,5.890,520.3
1072,5.889,520.3
1073,5.888,520.3
1074,5.887,520.4
1075,5.885,520.4
1076,5.884,520.4
1077,5.883,520.4
1078,5.882,520.4
1079,5.881,520.5
1080,5.880,520.5
1081,5.878,520.6
1082,5.877,520.5
1083,5.876,520.6
1084,5.875,520.6
1085,5.874,520.6
1086,5.872,520.5
1087,5.871,520.6
1088,5.870,520.6
1089,5.869,520.6
1090,5.868,520.8
1091,5.866,520.8
1092,5.865,520.7
1093,5.864,520.8
1094,5.863,520.8
1095,5.862,520.8
1096,5.860,520.8
1097,5.859,520.8
1098,5.858,520.8
1099,5.856,520.9
1100,5.855,520.9
1101,5.854,520.9
1102,5.853,521.0
1103,5.851,521.0
1104,5.850,521.0
1105,5.848,521.1
1106,5.847,521.1
1107,5.846,521.0
1108,5.844,521.1
1109,5.843,521.2
1110,5.841,521.2
1111,5.840,521.2
1112,5.838,521.2
1113,5.837,521.3
1114,5.835,521.3
1115,5.834,521.2
1116,5.832,521.3
1117,5.831,521.3
1118,5.829,521.3
1119,5.827,521.3
1120,5.826,521.3
1121,5.824,521.2
1122,5.822,521.5
1123,5.821,521.4
1124,5.819,521.4
1125,5.817,521.4
1126,5.816,521.4
1127,5.814,521.5
1128,5.812,521.5
1129,5.810,521.5
1130,5.809,521.4
1131,5.807,521.5
1132,5.805,521.5
1133,5.804,521.6
1134,5.802,521.6
1135,5.800,521.6
1136,5.798,521.6
1137,5.797,521.5
1138,5.795,521.6
1139,5.793,521.6
1140,5.791,521.6
1141,5.790,521.6
1142,5.788,521.6
1143,5.786,521.7
1144,5.785,521.7
1145,5.783,521.8
1146,5.781,521.7
1147,5.780,521.7
1148,5.778,521.8
1149,5.776,521.7
1150,5.775,521.8
1151,5.773,521.8
1152,5.772,521.8
1153,5.770,521.8
1154,5.769,521.8
1155,5.767,521.9
1156,5.765,521.9
1157,5.764,521.9
1158,5.763,522.0
1159,5.761,521.9
1160,5.760,522.0
1161,5.758,522.0
1162,5.757,522.0
1163,5.755,522.1
1164,5.754,522.1
1165,5.753,522.1
1166,5.751,522.0
1167,5.750,522.0
1168,5.749,522.1
1169,5.748,522.1
1170,5.746,522.1
1171,5.745,522.1
1172,5.744,522.2
1173,5.743,522.2
1174,5.741,522.1
1175,5.740,522.1
1176,5.739,522.1
1177,5.738,522.2
1178,5.737,522.3
1179,5.736,522.3
1180,5.735,522.2
1181,5.734,522.3
1182,5.733,522.3
1183,5.732,522.3
1184,5.731,522.4
1185,5.730,522.4
1186,5.729,522.3
1187,5.728,522.2
1188,5.727,522.3
1189,5.726,522.3
1190,5.725,522.3
1191,5.724,522.3
1192,5.724,522.3
1193,5.723,522.3
1194,5.722,522.3
1195,5.721,522.3
1196,5.720,522.4
1197,5.720,522.4
1198,5.719,522.4
1199,5.718,522.4
1200,5.718,522.4
1201,5.717,522.4
1202,5.716,522.4
1203,5.715,522.6
1204,5.715,522.6
1205,5.714,522.5
1206,5.713,522.5
1207,5.713,522.5
1208,5.712,522.4
1209,5.711,522.4
1210,5.711,522.4
1211,5.710,522.4
1212,5.710,522.5
1213,5.709,522.5
1214,5.708,522.6
1215,5.708,522.6
1216,5.707,522.6
1217,5.706,522.6
1218,5.706,522.6
1219,5.705,522.5
1220,5.704,522.5
1221,5.704,522.6
1222,5.703,522.7
1223,5.702,522.7
1224,5.702,522.6
1225,5.701,522.6
1226,5.701,522.6
1227,5.700,522.7
1228,5.699,522.7
1229,5.699,522.6
1230,5.698,522.6
1231,5.697,522.6
