Time (s),Mass (g),TC back 1 (K)
0,12.093,300.7
1,12.105,300.6
2,12.113,300.6
3,12.118,300.7
4,12.120,300.6
5,12.118,300.5
6,12.113,300.6
7,12.106,300.6
8,12.096,300.6
9,12.083,300.6
10,12.068,300.6
11,12.050,300.6
12,12.031,300.6
13,12.010,300.6
14,11.987,300.7
15,11.962,300.7
16,11.936,300.8
17,11.909,300.9
18,11.880,300.9
19,11.851,301.1
20,11.821,301.5
21,11.790,301.9
22,11.759,302.2
23,11.727,302.5
24,11.695,303.0
25,11.662,303.4
26,11.630,304.0
27,11.597,304.5
28,11.563,305.1
29,11.530,305.6
30,11.496,306.3
31,11.462,307.0
32,11.428,307.8
33,11.394,308.7
34,11.360,309.5
35,11.327,310.4
36,11.293,311.3
37,11.259,312.2
38,11.225,313.2
39,11.192,314.2
40,11.159,315.3
41,11.126,316.4
42,11.093,317.5
43,11.061,318.6
44,11.029,319.8
45,10.997,321.0
46,10.966,322.2
47,10.935,323.6
48,10.904,324.9
49,10.874,326.2
50,10.844,327.5
51,10.814,328.8
52,10.785,330.1
53,10.755,331.6
54,10.726,332.9
55,10.697,334.4
56,10.669,335.8
57,10.641,337.0
58,10.612,338.4
59,10.585,339.8
60,10.557,341.3
61,10.530,342.7
62,10.502,344.1
63,10.475,345.4
64,10.449,346.8
65,10.422,348.3
66,10.395,349.7
67,10.369,351.1
68,10.343,352.6
69,10.317,353.9
70,10.291,355.4
71,10.265,356.7
72,10.240,358.2
73,10.214,359.6
74,10.188,361.0
75,10.163,362.5
76,10.138,363.9
77,10.112,365.3
78,10.087,366.7
79,10.062,368.2
80,10.037,369.7
81,10.012,371.1
82,9.986,372.5
83,9.961,373.9
84,9.936,375.2
85,9.911,376.6
86,9.886,377.9
87,9.861,379.3
88,9.835,380.7
89,9.810,382.1
90,9.785,383.4
91,9.760,384.7
92,9.735,386.0
93,9.710,387.3
94,9.685,388.5
95,9.660,389.8
96,9.635,391.1
97,9.610,392.3
98,9.585,393.5
99,9.561,394.7
100,9.536,395.9
101,9.511,397.1
102,9.487,398.3
103,9.463,399.4
104,9.438,400.6
105,9.414,401.7
106,9.390,403.0
107,9.367,404.1
108,9.343,405.2
109,9.319,406.3
110,9.296,407.3
111,9.272,408.3
112,9.249,409.4
113,9.226,410.3
114,9.203,411.3
115,9.180,412.3
116,9.157,413.2
117,9.135,414.2
118,9.112,415.1
119,9.090,416.1
120,9.067,417.1
121,9.045,417.9
122,9.023,418.9
123,9.001,419.8
124,8.979,420.7
125,8.957,421.6
126,8.935,422.5
127,8.913,423.4
128,8.892,424.3
129,8.870,425.2
130,8.849,426.1
131,8.827,426.9
132,8.806,427.7
133,8.785,428.5
134,8.764,429.3
135,8.742,430.1
136,8.721,430.8
137,8.700,431.7
138,8.679,432.6
139,8.658,433.5
140,8.637,434.3
141,8.617,435.3
142,8.596,436.3
143,8.575,437.1
144,8.554,438.2
145,8.533,439.0
146,8.512,439.8
147,8.491,440.8
148,8.470,441.7
149,8.450,442.9
150,8.429,443.5
151,8.408,444.4
152,8.387,445.3
153,8.366,446.2
154,8.345,447.0
155,8.324,447.8
156,8.304,448.7
157,8.283,449.5
158,8.262,450.3
159,8.241,451.3
160,8.221,452.2
161,8.200,453.1
162,8.179,454.0
163,8.159,454.9
164,8.138,455.7
165,8.118,456.6
166,8.097,457.5
167,8.077,458.5
168,8.056,459.1
169,8.036,460.0
170,8.016,460.8
171,7.995,461.7
172,7.975,462.5
173,7.955,463.2
174,7.935,464.2
175,7.915,465.0
176,7.895,465.7
177,7.875,466.5
178,7.855,467.4
179,7.835,468.0
180,7.815,468.9
181,7.796,469.9
182,7.776,470.5
183,7.756,471.3
184,7.736,472.1
185,7.717,472.9
186,7.697,473.9
187,7.678,474.9
188,7.658,475.5
189,7.639,476.2
190,7.619,477.1
191,7.600,477.8
192,7.580,478.6
193,7.561,479.4
194,7.541,480.2
195,7.522,481.1
196,7.503,481.8
197,7.483,482.5
198,7.464,483.2
199,7.445,484.1
200,7.425,484.6
201,7.406,485.5
202,7.387,486.3
203,7.367,486.9
204,7.348,487.7
205,7.328,488.4
206,7.309,489.2
207,7.289,489.7
208,7.270,490.3
209,7.250,490.9
210,7.230,492.0
211,7.211,492.4
212,7.191,493.3
213,7.171,493.9
214,7.152,494.7
215,7.132,495.7
216,7.112,496.6
217,7.093,497.6
218,7.073,497.9
219,7.053,498.3
220,7.034,499.2
221,7.015,500.0
222,6.995,500.8
223,6.976,501.2
224,6.957,502.1
225,6.938,502.7
226,6.919,503.6
227,6.901,504.1
228,6.883,505.1
229,6.864,505.2
230,6.846,505.9
231,6.829,506.9
232,6.811,506.9
233,6.794,507.6
234,6.776,508.8
235,6.759,509.1
236,6.742,509.8
237,6.725,510.5
238,6.709,511.3
239,6.692,512.0
240,6.676,512.6
241,6.659,513.5
242,6.643,514.0
243,6.626,515.0
244,6.610,515.0
245,6.593,515.6
246,6.577,516.4
247,6.560,517.0
248,6.544,517.6
249,6.527,517.9
250,6.510,518.6
251,6.494,519.1
252,6.477,519.9
253,6.460,520.3
254,6.443,520.8
255,6.425,521.4
256,6.408,522.3
257,6.391,522.6
258,6.374,523.0
259,6.356,523.7
260,6.339,524.2
261,6.322,524.7
262,6.305,525.5
263,6.287,526.2
264,6.270,526.6
265,6.253,526.7
266,6.236,527.7
267,6.219,527.9
268,6.203,528.4
269,6.186,529.0
270,6.170,529.6
271,6.154,530.2
272,6.137,530.9
273,6.122,531.4
274,6.106,531.9
275,6.090,532.3
276,6.075,532.7
277,6.060,533.2
278,6.045,533.8
279,6.030,534.3
280,6.015,534.8
281,6.000,535.2
282,5.985,535.7
283,5.971,536.1
284,5.956,536.5
285,5.941,537.0
286,5.927,537.4
287,5.912,537.9
288,5.897,538.3
289,5.883,538.8
290,5.868,539.1
291,5.853,539.4
292,5.838,539.8
293,5.823,540.2
294,5.808,540.7
295,5.793,541.2
296,5.778,541.8
297,5.763,542.2
298,5.747,542.7
299,5.732,543.1
300,5.716,543.6
301,5.701,544.1
302,5.685,544.6
303,5.670,544.9
304,5.654,545.3
305,5.639,545.7
306,5.623,546.2
307,5.608,546.6
308,5.593,546.9
309,5.577,547.3
310,5.562,547.9
311,5.547,548.4
312,5.531,548.7
313,5.516,549.1
314,5.501,549.5
315,5.486,549.9
316,5.472,550.5
317,5.457,551.1
318,5.442,551.3
319,5.428,551.6
320,5.413,552.0
321,5.399,552.4
322,5.385,552.7
323,5.370,552.9
324,5.356,553.5
325,5.343,554.1
326,5.329,554.5
327,5.315,554.9
328,5.301,555.4
329,5.288,555.6
330,5.274,556.0
331,5.261,556.2
332,5.248,556.3
333,5.234,557.0
334,5.221,557.4
335,5.208,557.4
336,5.196,557.9
337,5.183,558.3
338,5.170,558.7
339,5.157,559.0
340,5.145,559.4
341,5.132,559.8
342,5.120,560.2
343,5.107,560.4
344,5.095,560.7
345,5.083,561.1
346,5.070,561.5
347,5.058,561.7
348,5.046,562.1
349,5.033,562.4
350,5.021,562.8
351,5.008,563.1
352,4.996,563.5
353,4.984,563.8
354,4.971,564.1
355,4.959,564.7
356,4.946,564.8
357,4.933,564.9
358,4.921,565.1
359,4.908,565.5
360,4.895,565.9
361,4.883,566.1
362,4.870,566.3
363,4.858,566.5
364,4.845,566.9
365,4.832,567.2
366,4.820,567.5
367,4.808,567.7
368,4.795,567.9
369,4.783,568.1
370,4.771,568.4
371,4.759,568.6
372,4.748,568.8
373,4.736,569.0
374,4.725,569.3
375,4.714,569.6
376,4.703,570.0
377,4.692,570.2
378,4.681,570.5
379,4.671,570.7
380,4.661,570.9
381,4.651,571.1
382,4.641,571.5
383,4.632,571.7
384,4.622,572.0
385,4.613,572.1
386,4.603,572.4
387,4.594,572.6
388,4.585,572.8
389,4.575,573.2
390,4.566,573.4
391,4.557,573.8
392,4.547,574.1
393,4.538,574.3
394,4.529,574.5
395,4.519,574.8
396,4.510,574.9
397,4.500,574.9
398,4.490,575.1
399,4.480,575.5
400,4.470,575.7
401,4.460,575.7
402,4.450,576.5
403,4.439,576.9
404,4.429,577.0
405,4.419,577.2
406,4.408,577.4
407,4.398,577.9
408,4.387,578.1
409,4.377,578.4
410,4.367,578.6
411,4.356,578.6
412,4.346,579.0
413,4.336,579.2
414,4.326,579.5
415,4.316,579.6
416,4.306,579.9
417,4.296,580.1
418,4.287,580.1
419,4.278,580.7
420,4.268,581.1
421,4.259,581.1
422,4.251,581.2
423,4.242,581.3
424,4.233,581.5
425,4.225,582.1
426,4.216,582.1
427,4.208,582.3
428,4.200,582.4
429,4.192,582.6
430,4.184,582.7
431,4.176,583.1
432,4.168,583.4
433,4.160,583.5
434,4.152,583.8
435,4.145,583.8
436,4.137,584.1
437,4.129,584.3
438,4.122,584.4
439,4.114,584.7
440,4.106,585.0
441,4.099,584.9
442,4.091,585.0
443,4.083,585.4
444,4.076,585.6
445,4.068,585.8
446,4.060,585.9
447,4.052,586.2
448,4.044,586.2
449,4.037,586.2
450,4.029,586.5
451,4.021,586.7
452,4.013,586.8
453,4.005,586.9
454,3.997,587.0
455,3.989,586.9
456,3.981,587.0
457,3.973,587.6
458,3.965,587.8
459,3.957,588.0
460,3.949,588.1
461,3.940,588.3
462,3.932,588.3
463,3.924,588.4
464,3.916,588.5
465,3.907,588.7
466,3.899,588.9
467,3.891,589.1
468,3.883,589.2
469,3.874,589.4
470,3.866,589.5
471,3.858,589.6
472,3.850,589.9
473,3.842,590.1
474,3.835,590.2
475,3.827,590.6
476,3.820,590.7
477,3.812,590.9
478,3.805,591.0
479,3.798,590.9
480,3.791,590.9
481,3.784,591.3
482,3.777,591.6
483,3.771,591.9
484,3.765,592.2
485,3.759,592.2
486,3.753,592.1
487,3.747,592.2
488,3.741,592.7
489,3.736,592.9
490,3.730,592.9
491,3.725,593.3
492,3.719,593.6
493,3.714,593.7
494,3.709,593.9
495,3.704,593.9
496,3.699,594.1
497,3.693,594.1
498,3.688,594.3
499,3.683,594.5
500,3.678,594.7
501,3.673,594.8
502,3.668,595.1
503,3.663,595.2
504,3.658,595.3
505,3.652,595.4
506,3.647,595.6
507,3.642,595.7
508,3.637,595.7
509,3.631,596.2
510,3.626,596.1
511,3.621,596.1
512,3.616,596.3
513,3.610,596.4
514,3.605,596.6
515,3.600,596.8
516,3.595,596.8
517,3.590,597.1
518,3.584,597.2
519,3.579,597.4
520,3.574,597.3
521,3.569,597.4
522,3.565,597.4
523,3.560,597.7
524,3.555,597.8
525,3.550,597.9
526,3.546,598.0
527,3.541,598.2
528,3.537,598.1
529,3.532,598.3
530,3.528,598.4
531,3.524,598.5
532,3.519,598.6
533,3.515,598.7
534,3.511,598.8
535,3.507,598.9
536,3.503,598.9
537,3.499,599.1
538,3.495,599.3
539,3.491,599.4
540,3.487,599.5
541,3.483,599.5
542,3.479,599.5
543,3.475,599.8
544,3.472,599.7
545,3.468,600.0
546,3.464,599.9
547,3.461,600.0
548,3.457,600.1
549,3.453,600.2
550,3.450,600.5
551,3.446,600.5
552,3.443,600.6
553,3.440,600.8
554,3.436,600.9
555,3.433,601.1
556,3.430,601.1
557,3.427,601.2
558,3.423,601.3
559,3.420,601.2
560,3.418,601.5
561,3.415,601.6
562,3.412,601.6
563,3.409,601.6
564,3.406,601.8
565,3.404,601.9
566,3.401,602.0
567,3.399,602.1
568,3.397,602.2
569,3.394,602.3
570,3.392,602.3
571,3.390,602.3
572,3.388,602.6
573,3.385,602.6
574,3.383,602.7
575,3.381,602.9
576,3.379,602.9
577,3.377,603.1
578,3.374,603.0
579,3.372,603.2
580,3.370,603.2
581,3.367,603.2
582,3.365,603.5
583,3.362,603.5
584,3.360,603.7
585,3.357,603.8
586,3.354,603.9
587,3.351,603.9
588,3.348,604.0
589,3.345,604.0
590,3.342,603.9
591,3.339,604.2
592,3.335,604.1
593,3.332,604.4
594,3.329,604.3
595,3.326,604.5
596,3.322,604.6
597,3.319,604.7
598,3.316,604.8
599,3.313,604.8
600,3.310,604.9
601,3.307,604.9
602,3.304,604.9
603,3.301,605.0
604,3.298,605.1
605,3.296,605.1
606,3.293,605.1
607,3.291,605.2
608,3.289,605.3
609,3.286,605.5
610,3.285,605.6
611,3.283,605.7
612,3.281,605.7
613,3.279,605.8
614,3.277,605.8
615,3.276,606.0
616,3.274,606.0
617,3.272,606.1
618,3.270,606.3
619,3.269,606.3
620,3.267,606.5
621,3.265,606.5
622,3.263,606.3
623,3.261,606.3
624,3.258,606.3
625,3.256,606.5
626,3.253,606.6
627,3.250,606.6
628,3.247,606.6
629,3.244,606.7
630,3.241,606.8
631,3.237,607.0
632,3.233,607.0
633,3.230,607.1
634,3.226,607.0
635,3.222,607.0
636,3.218,607.1
637,3.214,607.1
638,3.210,607.2
639,3.206,607.1
640,3.203,607.2
641,3.199,607.2
642,3.195,607.4
643,3.192,607.4
644,3.188,607.6
645,3.185,607.5
646,3.182,607.6
647,3.180,607.7
648,3.177,607.6
649,3.175,607.6
650,3.173,607.7
651,3.172,607.8
652,3.170,607.9
653,3.169,607.8
654,3.168,608.0
655,3.167,607.9
656,3.166,608.0
657,3.166,608.0
658,3.165,608.0
659,3.165,608.0
660,3.165,608.0
661,3.165,608.0
662,3.165,608.1
663,3.165,608.2
664,3.165,608.2
665,3.165,608.3
666,3.165,608.4
667,3.165,608.4
668,3.165,608.3
669,3.165,608.4
670,3.164,608.6
671,3.164,608.6
672,3.164,608.6
673,3.163,608.6
674,3.163,608.6
675,3.162,608.6
676,3.162,608.7
677,3.161,608.8
678,3.160,608.8
679,3.159,608.9
680,3.158,608.9
681,3.157,609.0
682,3.156,609.1
683,3.155,609.0
684,3.153,609.0
685,3.152,609.1
686,3.150,609.1
687,3.148,609.1
688,3.146,609.1
689,3.144,609.2
690,3.142,609.2
691,3.140,609.2
692,3.137,609.3
693,3.135,609.3
694,3.132,609.3
695,3.129,609.4
696,3.126,609.4
697,3.124,609.5
698,3.121,609.5
699,3.118,609.5
700,3.115,609.6
701,3.112,609.6
702,3.109,609.6
703,3.107,609.5
704,3.104,609.6
705,3.101,609.6
706,3.099,609.5
707,3.096,609.5
708,3.094,609.6
709,3.091,609.6
710,3.089,609.6
711,3.087,609.6
712,3.086,609.7
713,3.084,609.8
714,3.082,609.8
715,3.081,609.8
716,3.080,609.8
717,3.079,609.8
718,3.078,609.8
719,3.077,609.8
720,3.077,609.8
721,3.076,609.8
722,3.076,609.8
723,3.075,609.8
724,3.075,609.8
725,3.075,609.9
726,3.075,609.9
727,3.075,609.9
728,3.075,609.9
729,3.075,610.0
730,3.075,610.1
731,3.076,610.0
732,3.076,609.9
733,3.076,609.9
734,3.077,609.9
735,3.077,610.0
736,3.078,610.0
737,3.078,610.0
738,3.079,609.9
739,3.079,609.9
740,3.079,610.0
741,3.080,609.9
742,3.080,609.8
743,3.080,609.8
744,3.080,609.9
745,3.079,609.8
746,3.079,609.8
747,3.079,609.8
748,3.078,609.9
749,3.077,609.9
750,3.076,609.9
751,3.075,610.0
752,3.073,610.0
753,3.071,610.0
754,3.069,610.0
755,3.067,610.0
756,3.065,610.0
757,3.062,610.0
758,3.059,610.0
759,3.056,610.0
760,3.053,610.0
761,3.050,610.0
762,3.047,610.0
763,3.044,610.1
764,3.041,610.1
765,3.038,610.1
766,3.035,610.2
767,3.032,610.1
768,3.029,610.1
769,3.027,610.1
770,3.024,610.2
771,3.022,610.3
772,3.020,610.3
773,3.019,610.2
774,3.017,610.2
775,3.016,610.3
776,3.015,610.3
777,3.015,610.3
778,3.014,610.4
779,3.014,610.4
780,3.014,610.3
781,3.014,610.4
782,3.014,610.4
783,3.015,610.5
784,3.015,610.5
785,3.015,610.5
786,3.016,610.5
787,3.016,610.6
788,3.017,610.6
789,3.017,610.7
790,3.017,610.6
791,3.018,610.6
792,3.018,610.7
793,3.018,610.7
794,3.017,610.6
795,3.017,610.7
796,3.016,610.8
797,3.015,610.7
798,3.014,610.7
799,3.013,610.7
800,3.012,610.8
801,3.011,610.8
802,3.009,610.8
803,3.008,610.8
804,3.006,610.7
805,3.005,610.8
806,3.004,610.8
807,3.002,610.8
808,3.001,610.7
809,3.000,610.9
810,2.999,610.9
811,2.998,611.0
812,2.997,610.9
813,2.997,610.8
814,2.996,610.9
815,2.996,610.9
816,2.997,610.8
817,2.997,610.9
818,2.998,610.8
819,2.999,610.8
820,2.999,610.8
821,3.000,610.9
822,3.001,610.9
823,3.002,611.0
824,3.003,610.9
825,3.004,610.9
826,3.005,610.9
827,3.005,610.9
828,3.005,610.9
829,3.005,610.9
830,3.005,610.9
831,3.004,610.9
832,3.003,610.9
833,3.001,610.9
834,2.998,610.9
835,2.995,611.0
836,2.992,610.9
