Time (s),m (g),T Back (K),T Top (K)
0,99.881964,293,293
1,99.881964,293,303.139
2,99.881928,293,308.767
3,99.881892,293,313.242
4,99.881856,292.999,317.071
5,99.88182,292.999,320.47
6,99.881784,292.999,323.555
7,99.88173,292.999,326.398
8,99.881694,292.999,329.046
9,99.881658,292.999,331.533
10,99.881604,292.999,333.884
11,99.881568,292.998,336.119
12,99.881514,292.998,338.252
13,99.881478,292.998,340.294
14,99.881424,292.998,342.257
15,99.881388,292.998,344.148
16,99.881334,292.998,345.974
17,99.88128,292.998,347.741
18,99.881226,292.997,349.453
19,99.88119,292.997,351.115
20,99.881136,292.997,352.731
21,99.881082,292.997,354.305
22,99.881028,292.997,355.838
23,99.880974,292.997,357.333
24,99.880902,292.997,358.794
25,99.880848,292.996,360.222
26,99.880794,292.996,361.618
27,99.880722,292.996,362.985
28,99.880668,292.996,364.325
29,99.880596,292.996,365.638
30,99.880542,292.996,366.926
31,99.88047,292.996,368.19
32,99.880398,292.996,369.431
33,99.880344,292.997,370.65
34,99.880272,292.997,371.849
35,99.8802,292.997,373.028
36,99.880128,292.998,374.187
37,99.880038,292.998,375.329
38,99.879966,292.999,376.452
39,99.879894,293,377.559
40,99.879804,293.001,378.649
41,99.879732,293.003,379.724
42,99.879642,293.005,380.783
43,99.87957,293.007,381.828
44,99.87948,293.009,382.858
45,99.87939,293.012,383.875
46,99.8793,293.015,384.878
47,99.87921,293.019,385.869
48,99.87912,293.023,386.847
49,99.87903,293.028,387.813
50,99.878922,293.033,388.767
51,99.878832,293.039,389.709
52,99.878724,293.046,390.641
53,99.878634,293.053,391.561
54,99.878526,293.061,392.472
55,99.878418,293.07,393.372
56,99.87831,293.079,394.261
57,99.878202,293.09,395.142
58,99.878094,293.101,396.012
59,99.877968,293.113,396.874
60,99.87786,293.126,397.726
61,99.877752,293.14,398.57
62,99.877626,293.155,399.405
63,99.8775,293.172,400.232
64,99.877374,293.189,401.05
65,99.877248,293.207,401.861
66,99.877122,293.227,402.663
67,99.876996,293.248,403.458
68,99.87687,293.27,404.245
69,99.876726,293.294,405.025
70,99.8766,293.318,405.798
71,99.876456,293.344,406.564
72,99.876312,293.372,407.323
73,99.876168,293.4,408.075
74,99.876024,293.431,408.82
75,99.87588,293.462,409.559
76,99.875736,293.496,410.291
77,99.875574,293.53,411.017
78,99.87543,293.566,411.737
79,99.875268,293.604,412.451
80,99.875106,293.643,413.159
81,99.874944,293.684,413.861
82,99.874782,293.727,414.558
83,99.87462,293.771,415.248
84,99.87444,293.816,415.934
85,99.874278,293.864,416.613
86,99.874098,293.913,417.288
87,99.873918,293.964,417.957
88,99.873738,294.016,418.621
89,99.873558,294.07,419.28
90,99.873378,294.126,419.934
91,99.87318,294.184,420.582
92,99.873,294.243,421.226
93,99.872802,294.304,421.866
94,99.872604,294.367,422.5
95,99.872406,294.431,423.13
96,99.872208,294.498,423.755
97,99.871992,294.566,424.376
98,99.871794,294.636,424.993
99,99.871578,294.708,425.605
100,99.871362,294.781,426.212
101,99.871146,294.856,426.816
102,99.87093,294.934,427.415
103,99.870714,295.013,428.01
104,99.87048,295.093,428.601
105,99.870246,295.176,429.188
106,99.870012,295.26,429.771
107,99.869778,295.346,430.35
108,99.869544,295.434,430.926
109,99.86931,295.524,431.497
110,99.869058,295.616,432.065
111,99.868806,295.709,432.629
112,99.868554,295.804,433.189
113,99.868302,295.901,433.746
114,99.86805,296,434.299
115,99.867798,296.1,434.849
116,99.867528,296.203,435.395
117,99.867258,296.307,435.938
118,99.866988,296.413,436.477
119,99.866718,296.52,437.013
120,99.86643,296.63,437.546
121,99.866142,296.741,438.075
122,99.865872,296.854,438.601
123,99.865584,296.969,439.124
124,99.865278,297.085,439.644
125,99.86499,297.203,440.161
126,99.864684,297.323,440.674
127,99.864378,297.444,441.185
128,99.864072,297.568,441.692
129,99.863766,297.693,442.197
130,99.863442,297.819,442.698
131,99.863136,297.948,443.197
132,99.862812,298.078,443.693
133,99.86247,298.209,444.186
134,99.862146,298.343,444.676
135,99.861804,298.478,445.163
136,99.861462,298.614,445.648
137,99.86112,298.752,446.13
138,99.860778,298.892,446.609
139,99.860418,299.034,447.085
140,99.860076,299.177,447.559
141,99.859716,299.321,448.03
142,99.859338,299.468,448.498
143,99.858978,299.615,448.964
144,99.8586,299.765,449.428
145,99.858222,299.916,449.889
146,99.857844,300.068,450.347
147,99.857448,300.222,450.803
148,99.85707,300.378,451.257
149,99.856674,300.534,451.708
150,99.85626,300.693,452.156
151,99.855864,300.853,452.603
152,99.85545,301.014,453.047
153,99.855036,301.177,453.488
154,99.854622,301.341,453.928
155,99.85419,301.507,454.365
156,99.853758,301.674,454.8
157,99.853326,301.843,455.232
158,99.852876,302.013,455.663
159,99.852444,302.184,456.091
160,99.851994,302.357,456.517
161,99.851526,302.531,456.941
162,99.851076,302.707,457.362
163,99.850608,302.883,457.782
164,99.85014,303.062,458.2
165,99.849654,303.241,458.615
166,99.849186,303.422,459.028
167,99.8487,303.604,459.44
168,99.848196,303.787,459.849
169,99.84771,303.972,460.256
170,99.847206,304.158,460.662
171,99.846684,304.345,461.065
172,99.84618,304.534,461.466
173,99.845658,304.723,461.866
174,99.845136,304.914,462.263
175,99.844596,305.106,462.659
176,99.844056,305.3,463.053
177,99.843516,305.494,463.445
178,99.842958,305.69,463.835
179,99.842418,305.887,464.223
180,99.841842,306.085,464.609
181,99.841284,306.284,464.994
182,99.840708,306.484,465.377
183,99.840132,306.686,465.758
184,99.839538,306.888,466.137
185,99.838944,307.092,466.514
186,99.83835,307.297,466.89
187,99.837738,307.503,467.264
188,99.837126,307.71,467.637
189,99.836514,307.917,468.007
190,99.835884,308.127,468.376
191,99.835254,308.337,468.744
192,99.834606,308.548,469.11
193,99.833958,308.76,469.474
194,99.83331,308.973,469.836
195,99.832644,309.187,470.197
196,99.831978,309.402,470.556
197,99.831312,309.618,470.914
198,99.830628,309.835,471.27
199,99.829944,310.053,471.625
200,99.829242,310.272,471.978
201,99.82854,310.492,472.329
202,99.827838,310.713,472.679
203,99.827118,310.935,473.027
204,99.82638,311.158,473.374
205,99.82566,311.381,473.72
206,99.824922,311.606,474.064
207,99.824166,311.831,474.406
208,99.82341,312.057,474.747
209,99.822654,312.285,475.087
210,99.82188,312.513,475.425
211,99.821088,312.741,475.762
212,99.820314,312.971,476.097
213,99.819504,313.202,476.431
214,99.818712,313.433,476.764
215,99.817902,313.665,477.095
216,99.817074,313.898,477.425
217,99.816246,314.132,477.754
218,99.8154,314.366,478.081
219,99.814554,314.601,478.407
220,99.813708,314.837,478.731
221,99.812844,315.074,479.054
222,99.81198,315.312,479.376
223,99.811098,315.55,479.697
224,99.810198,315.789,480.016
225,99.809298,316.029,480.334
226,99.808398,316.269,480.651
227,99.80748,316.51,480.966
228,99.806562,316.752,481.281
229,99.805626,316.995,481.594
230,99.804672,317.238,481.905
231,99.803718,317.482,482.216
232,99.802764,317.726,482.525
233,99.801792,317.972,482.833
234,99.800802,318.218,483.14
235,99.799812,318.464,483.446
236,99.798804,318.711,483.75
237,99.797796,318.959,484.054
238,99.79677,319.207,484.356
239,99.795744,319.456,484.657
240,99.7947,319.706,484.957
241,99.793656,319.956,485.256
242,99.792594,320.207,485.553
243,99.791514,320.458,485.85
244,99.790434,320.71,486.145
245,99.789336,320.963,486.439
246,99.788238,321.216,486.732
247,99.787122,321.47,487.024
248,99.786006,321.724,487.315
249,99.784854,321.979,487.605
250,99.78372,322.234,487.894
251,99.78255,322.49,488.182
252,99.781398,322.746,488.468
253,99.78021,323.003,488.754
254,99.779022,323.26,489.039
255,99.777816,323.518,489.322
256,99.77661,323.776,489.605
257,99.775386,324.035,489.886
258,99.774144,324.294,490.166
259,99.772902,324.554,490.446
260,99.771642,324.814,490.724
261,99.770364,325.075,491.002
262,99.769086,325.336,491.278
263,99.76779,325.597,491.554
264,99.766476,325.859,491.828
265,99.765162,326.122,492.101
266,99.76383,326.385,492.374
267,99.76248,326.648,492.645
268,99.76113,326.912,492.916
269,99.759744,327.176,493.186
270,99.758376,327.44,493.454
271,99.756972,327.705,493.722
272,99.755568,327.971,493.989
273,99.754146,328.236,494.255
274,99.752724,328.502,494.52
275,99.751266,328.769,494.784
276,99.749808,329.036,495.047
277,99.748332,329.303,495.309
278,99.746856,329.571,495.57
279,99.745362,329.838,495.83
280,99.743832,330.107,496.09
281,99.74232,330.375,496.349
282,99.740772,330.644,496.606
283,99.739224,330.913,496.863
284,99.737658,331.183,497.119
285,99.736074,331.453,497.374
286,99.734472,331.723,497.628
287,99.73287,331.994,497.882
288,99.73125,332.265,498.134
289,99.729612,332.536,498.386
290,99.727956,332.807,498.637
291,99.726282,333.079,498.887
292,99.724608,333.351,499.136
293,99.722898,333.623,499.384
294,99.721188,333.896,499.632
295,99.719478,334.169,499.879
296,99.717732,334.442,500.124
297,99.715968,334.715,500.37
298,99.714204,334.989,500.614
299,99.712422,335.263,500.857
300,99.710604,335.537,501.1
301,99.708786,335.811,501.342
302,99.706968,336.086,501.583
303,99.705114,336.36,501.823
304,99.703242,336.636,502.063
305,99.70137,336.911,502.301
306,99.699462,337.186,502.539
307,99.697554,337.462,502.777
308,99.695628,337.738,503.013
309,99.693684,338.014,503.249
310,99.691722,338.291,503.484
311,99.689742,338.567,503.718
312,99.687744,338.844,503.951
313,99.685746,339.121,504.184
314,99.683712,339.398,504.416
315,99.681678,339.675,504.647
316,99.679608,339.953,504.878
317,99.677538,340.23,505.107
318,99.675432,340.508,505.336
319,99.673326,340.786,505.565
320,99.671184,341.064,505.792
321,99.669042,341.343,506.019
322,99.666882,341.621,506.245
323,99.664704,341.9,506.471
324,99.66249,342.178,506.695
325,99.660276,342.457,506.92
326,99.658044,342.736,507.143
327,99.655794,343.015,507.366
328,99.653508,343.295,507.587
329,99.651222,343.574,507.809
330,99.648918,343.854,508.029
331,99.646596,344.133,508.249
332,99.644238,344.413,508.468
333,99.64188,344.693,508.687
334,99.639486,344.973,508.905
335,99.637092,345.253,509.122
336,99.634662,345.534,509.339
337,99.632232,345.814,509.555
338,99.629766,346.094,509.77
339,99.6273,346.375,509.984
340,99.624798,346.655,510.198
341,99.622278,346.936,510.412
342,99.61974,347.217,510.624
343,99.617184,347.498,510.836
344,99.61461,347.779,511.048
345,99.612018,348.06,511.258
346,99.60939,348.341,511.469
347,99.606762,348.622,511.678
348,99.604098,348.903,511.887
349,99.601434,349.185,512.095
350,99.598734,349.466,512.303
351,99.596016,349.747,512.51
352,99.59328,350.029,512.716
353,99.590526,350.31,512.922
354,99.587736,350.592,513.127
355,99.584946,350.873,513.331
356,99.58212,351.155,513.535
357,99.579276,351.437,513.739
358,99.576414,351.718,513.941
359,99.573534,352,514.143
360,99.570618,352.282,514.345
361,99.567702,352.564,514.546
362,99.56475,352.845,514.746
363,99.56178,353.127,514.946
364,99.558792,353.409,515.145
365,99.555768,353.691,515.344
366,99.552726,353.973,515.542
367,99.549684,354.255,515.739
368,99.546606,354.537,515.936
369,99.543492,354.818,516.132
370,99.540378,355.1,516.328
371,99.537228,355.382,516.523
372,99.53406,355.664,516.718
373,99.530856,355.946,516.912
374,99.527652,356.228,517.105
375,99.524412,356.51,517.298
376,99.521154,356.792,517.49
377,99.51786,357.073,517.682
378,99.514566,357.355,517.873
379,99.511236,357.637,518.064
380,99.50787,357.919,518.254
381,99.504504,358.2,518.444
382,99.501102,358.482,518.633
383,99.497682,358.764,518.821
384,99.494226,359.045,519.009
385,99.490752,359.327,519.197
386,99.48726,359.609,519.384
387,99.48375,359.89,519.57
388,99.480204,360.172,519.756
389,99.47664,360.453,519.941
390,99.47304,360.735,520.126
391,99.469422,361.016,520.31
392,99.465786,361.297,520.494
393,99.462132,361.578,520.677
394,99.458442,361.86,520.86
395,99.454716,362.141,521.042
396,99.45099,362.422,521.224
397,99.44721,362.703,521.405
398,99.44343,362.984,521.586
399,99.439614,363.265,521.766
400,99.43578,363.545,521.946
401,99.43191,363.826,522.125
402,99.428022,364.107,522.304
403,99.424116,364.387,522.482
404,99.420174,364.668,522.66
405,99.416214,364.948,522.837
406,99.412218,365.229,523.013
407,99.408204,365.509,523.19
408,99.404154,365.789,523.365
409,99.400086,366.069,523.541
410,99.395982,366.349,523.715
411,99.391878,366.629,523.89
412,99.38772,366.909,524.064
413,99.383544,367.189,524.237
414,99.37935,367.468,524.41
415,99.37512,367.748,524.582
416,99.370872,368.027,524.754
417,99.366588,368.307,524.926
418,99.362286,368.586,525.097
419,99.357948,368.865,525.267
420,99.353592,369.144,525.437
421,99.3492,369.423,525.607
422,99.34479,369.702,525.776
423,99.340344,369.981,525.945
424,99.33588,370.259,526.113
425,99.33138,370.538,526.281
426,99.326862,370.816,526.448
427,99.322308,371.094,526.615
428,99.317736,371.372,526.781
429,99.313128,371.65,526.947
430,99.308502,371.928,527.113
431,99.30384,372.206,527.278
432,99.299142,372.484,527.443
433,99.294426,372.761,527.607
434,99.289692,373.038,527.771
435,99.284922,373.316,527.934
436,99.280116,373.593,528.097
437,99.275292,373.87,528.259
438,99.270432,374.146,528.421
439,99.265536,374.423,528.583
440,99.26064,374.7,528.744
441,99.25569,374.976,528.905
442,99.250722,375.252,529.065
443,99.245718,375.528,529.225
444,99.240696,375.804,529.385
445,99.235638,376.08,529.544
446,99.230544,376.356,529.702
447,99.225432,376.631,529.861
448,99.220284,376.907,530.018
449,99.215118,377.182,530.176
450,99.209916,377.457,530.333
451,99.204678,377.732,530.49
452,99.199422,378.006,530.646
453,99.19413,378.281,530.802
454,99.18882,378.555,530.957
455,99.183474,378.83,531.112
456,99.178092,379.104,531.267
457,99.172692,379.378,531.421
458,99.167238,379.651,531.575
459,99.161784,379.925,531.728
460,99.156276,380.198,531.881
461,99.15075,380.472,532.034
462,99.145206,380.745,532.186
463,99.139608,381.017,532.338
464,99.133992,381.29,532.489
465,99.128358,381.563,532.64
466,99.12267,381.835,532.791
467,99.116964,382.107,532.941
468,99.11124,382.379,533.091
469,99.105462,382.651,533.241
470,99.099666,382.923,533.39
471,99.093834,383.194,533.539
472,99.087984,383.465,533.687
473,99.082098,383.737,533.835
474,99.076176,384.007,533.983
475,99.070218,384.278,534.13
476,99.064242,384.549,534.277
477,99.05823,384.819,534.424
478,99.052182,385.089,534.57
479,99.046116,385.359,534.716
480,99.040014,385.629,534.861
481,99.033876,385.898,535.006
482,99.027702,386.168,535.151
483,99.02151,386.437,535.296
484,99.015282,386.706,535.44
485,99.009018,386.975,535.583
486,99.002736,387.243,535.727
487,98.996418,387.512,535.87
488,98.990064,387.78,536.012
489,98.983674,388.048,536.155
490,98.977266,388.315,536.297
491,98.970804,388.583,536.438
492,98.964324,388.85,536.58
493,98.957826,389.117,536.721
494,98.951274,389.384,536.861
495,98.944704,389.651,537.001
496,98.938098,389.917,537.141
497,98.931456,390.184,537.281
498,98.924796,390.45,537.42
499,98.9181,390.716,537.559
500,98.911368,390.981,537.698
501,98.9046,391.247,537.836
502,98.897796,391.512,537.974
503,98.890974,391.777,538.112
504,98.884116,392.041,538.249
505,98.877222,392.306,538.386
506,98.870292,392.57,538.522
507,98.863344,392.834,538.659
508,98.856342,393.098,538.795
509,98.849322,393.362,538.93
510,98.842284,393.625,539.066
511,98.835192,393.888,539.201
512,98.828082,394.151,539.336
513,98.820918,394.414,539.47
514,98.813736,394.676,539.604
515,98.806518,394.939,539.738
516,98.799282,395.201,539.871
517,98.791992,395.462,540.005
518,98.784684,395.724,540.137
519,98.77734,395.985,540.27
520,98.76996,396.246,540.402
521,98.762562,396.507,540.534
522,98.75511,396.768,540.666
523,98.74764,397.028,540.797
524,98.740134,397.288,540.928
525,98.732592,397.548,541.059
526,98.725014,397.808,541.19
527,98.717418,398.067,541.32
528,98.709768,398.326,541.45
529,98.7021,398.585,541.579
530,98.694396,398.844,541.709
531,98.686656,399.102,541.838
532,98.678898,399.36,541.966
533,98.671086,399.618,542.095
534,98.663256,399.876,542.223
535,98.655372,400.133,542.351
536,98.64747,400.39,542.479
537,98.63955,400.647,542.606
538,98.631576,400.904,542.733
539,98.623566,401.16,542.86
540,98.615538,401.416,542.986
541,98.607474,401.672,543.112
542,98.599374,401.928,543.238
543,98.591238,402.183,543.364
544,98.583066,402.438,543.489
545,98.574876,402.693,543.615
546,98.566632,402.948,543.739
547,98.55837,403.202,543.864
548,98.550072,403.456,543.988
549,98.541738,403.71,544.112
550,98.533368,403.964,544.236
551,98.524962,404.217,544.36
552,98.516538,404.47,544.483
553,98.508078,404.723,544.606
554,98.499564,404.975,544.729
555,98.491032,405.227,544.851
556,98.482464,405.479,544.974
557,98.47386,405.731,545.096
558,98.465238,405.982,545.217
559,98.456562,406.234,545.339
560,98.447868,406.485,545.46
561,98.439138,406.735,545.581
562,98.430372,406.986,545.702
563,98.42157,407.236,545.822
564,98.412732,407.485,545.942
565,98.403858,407.735,546.062
566,98.394966,407.984,546.182
567,98.38602,408.233,546.301
568,98.377056,408.482,546.421
569,98.368056,408.73,546.54
570,98.35902,408.978,546.658
571,98.349948,409.226,546.777
572,98.34084,409.474,546.895
573,98.331696,409.721,547.013
574,98.322534,409.968,547.131
575,98.313336,410.215,547.249
576,98.304084,410.461,547.366
577,98.294814,410.708,547.483
578,98.285508,410.954,547.6
579,98.276166,411.199,547.717
580,98.266806,411.445,547.833
581,98.257392,411.69,547.949
582,98.247942,411.934,548.065
583,98.238474,412.179,548.181
584,98.22897,412.423,548.296
585,98.21943,412.667,548.411
586,98.209854,412.911,548.526
587,98.200242,413.154,548.641
588,98.190594,413.397,548.756
589,98.18091,413.64,548.87
590,98.171208,413.882,548.984
591,98.16147,414.124,549.098
592,98.151678,414.366,549.212
593,98.141868,414.608,549.325
594,98.132022,414.849,549.439
595,98.12214,415.09,549.552
596,98.112222,415.331,549.664
597,98.102286,415.571,549.777
598,98.092296,415.812,549.889
599,98.082288,416.051,550.002
600,98.072226,416.291,550.114
601,98.062146,416.53,550.225
602,98.05203,416.769,550.337
603,98.041878,417.008,550.448
604,98.03169,417.246,550.559
605,98.021484,417.484,550.67
606,98.011224,417.722,550.781
607,98.000928,417.959,550.892
608,97.990614,418.196,551.002
609,97.980264,418.433,551.112
610,97.969878,418.67,551.222
611,97.959438,418.906,551.331
612,97.948998,419.142,551.441
613,97.938504,419.378,551.55
614,97.927974,419.613,551.659
615,97.917408,419.848,551.768
616,97.906824,420.083,551.877
617,97.896186,420.317,551.985
618,97.88553,420.551,552.094
619,97.874838,420.785,552.202
620,97.86411,421.019,552.31
621,97.853346,421.252,552.417
622,97.842546,421.485,552.525
623,97.831728,421.717,552.632
624,97.820856,421.949,552.739
625,97.809948,422.181,552.846
626,97.799022,422.413,552.953
627,97.78806,422.644,553.059
628,97.777062,422.875,553.166
629,97.766028,423.106,553.272
630,97.754958,423.336,553.378
631,97.743852,423.567,553.484
632,97.73271,423.796,553.589
633,97.72155,424.026,553.695
634,97.710336,424.255,553.8
635,97.699104,424.484,553.905
636,97.687818,424.712,554.01
637,97.676514,424.94,554.115
638,97.665174,425.168,554.219
639,97.653798,425.396,554.323
640,97.642386,425.623,554.427
641,97.630956,425.85,554.531
642,97.619472,426.077,554.635
643,97.60797,426.303,554.739
644,97.596414,426.529,554.842
645,97.58484,426.755,554.945
646,97.57323,426.98,555.048
647,97.561584,427.205,555.151
648,97.549902,427.43,555.254
649,97.538184,427.654,555.356
650,97.52643,427.878,555.459
651,97.51464,428.102,555.561
652,97.502832,428.325,555.663
653,97.49097,428.548,555.765
654,97.47909,428.771,555.866
655,97.467174,428.993,555.968
656,97.455222,429.215,556.069
657,97.443234,429.437,556.17
658,97.43121,429.659,556.271
659,97.41915,429.88,556.372
660,97.407054,430.1,556.472
661,97.39494,430.321,556.573
662,97.382772,430.541,556.673
663,97.370586,430.761,556.773
664,97.358364,430.98,556.873
665,97.346088,431.2,556.973
666,97.333794,431.418,557.072
667,97.321464,431.637,557.172
668,97.309116,431.855,557.271
669,97.296714,432.073,557.37
670,97.284276,432.29,557.469
671,97.27182,432.508,557.568
672,97.25931,432.724,557.666
673,97.246782,432.941,557.765
674,97.234218,433.157,557.863
675,97.221618,433.373,557.961
676,97.208982,433.588,558.059
677,97.19631,433.804,558.157
678,97.183602,434.018,558.254
679,97.170858,434.233,558.352
