Time (s),m (g),T Back (K),T Top (K)
0,33.293988,293,293
1,33.293988,293,298.497
2,33.293976,293,302.578
3,33.293964,293,306.088
4,33.293952,293,309.233
5,33.293934,293.002,312.111
6,33.293922,293.011,314.784
7,33.29391,293.03,317.29
8,33.293892,293.065,319.657
9,33.29388,293.123,321.907
10,33.293862,293.206,324.055
11,33.293844,293.32,326.113
12,33.293826,293.467,328.091
13,33.293808,293.648,329.998
14,33.29379,293.866,331.841
15,33.293772,294.119,333.625
16,33.293748,294.409,335.355
17,33.29373,294.734,337.036
18,33.293706,295.094,338.672
19,33.293682,295.488,340.266
20,33.293664,295.915,341.821
21,33.293634,296.372,343.339
22,33.29361,296.86,344.823
23,33.293586,297.376,346.276
24,33.293556,297.919,347.698
25,33.293532,298.489,349.093
26,33.293502,299.082,350.461
27,33.293472,299.701,351.805
28,33.293442,300.341,353.125
29,33.293406,301.002,354.422
30,33.293376,301.682,355.7
31,33.29334,302.38,356.957
32,33.293304,303.096,358.197
33,33.293268,303.828,359.419
34,33.293232,304.575,360.624
35,33.29319,305.336,361.814
36,33.293154,306.111,362.99
37,33.293112,306.899,364.151
38,33.29307,307.698,365.3
39,33.293022,308.509,366.435
40,33.29298,309.33,367.559
41,33.292932,310.161,368.672
42,33.292884,311.001,369.774
43,33.292836,311.85,370.867
44,33.292782,312.707,371.949
45,33.292728,313.572,373.022
46,33.292674,314.443,374.087
47,33.29262,315.322,375.144
48,33.292566,316.206,376.192
49,33.292506,317.096,377.233
50,33.292446,317.992,378.267
51,33.29238,318.893,379.295
52,33.29232,319.798,380.315
53,33.292254,320.708,381.33
54,33.292182,321.622,382.339
55,33.292116,322.539,383.342
56,33.292044,323.46,384.34
57,33.291972,324.384,385.332
58,33.291894,325.311,386.32
59,33.291816,326.241,387.303
60,33.291738,327.174,388.281
61,33.29166,328.108,389.255
62,33.291576,329.045,390.225
63,33.291492,329.984,391.19
64,33.291402,330.925,392.152
65,33.291312,331.867,393.11
66,33.291216,332.81,394.065
67,33.291126,333.755,395.016
68,33.29103,334.701,395.963
69,33.290928,335.649,396.908
70,33.290826,336.597,397.849
71,33.290718,337.545,398.787
72,33.290616,338.495,399.722
73,33.290502,339.445,400.655
74,33.290394,340.396,401.584
75,33.290274,341.346,402.511
76,33.29016,342.298,403.435
77,33.290034,343.249,404.356
78,33.289914,344.201,405.275
79,33.289788,345.152,406.192
80,33.289656,346.104,407.106
81,33.289524,347.056,408.017
82,33.289386,348.007,408.927
83,33.289248,348.958,409.834
84,33.289104,349.909,410.739
85,33.28896,350.86,411.641
86,33.28881,351.81,412.542
87,33.288654,352.76,413.44
88,33.288498,353.709,414.336
89,33.288342,354.658,415.23
90,33.288174,355.606,416.122
91,33.288006,356.554,417.013
92,33.287838,357.501,417.901
93,33.287664,358.448,418.787
94,33.287484,359.394,419.671
95,33.287298,360.339,420.553
96,33.287112,361.283,421.433
97,33.28692,362.226,422.312
98,33.286722,363.169,423.188
99,33.286524,364.111,424.063
100,33.28632,365.052,424.936
101,33.28611,365.992,425.807
102,33.285894,366.931,426.676
103,33.285672,367.869,427.543
104,33.28545,368.806,428.408
105,33.285222,369.742,429.272
106,33.284988,370.678,430.134
107,33.284748,371.612,430.994
108,33.284502,372.545,431.852
109,33.28425,373.477,432.708
110,33.283998,374.408,433.563
111,33.283734,375.338,434.415
112,33.28347,376.266,435.266
113,33.283194,377.194,436.115
114,33.282918,378.12,436.963
115,33.28263,379.046,437.808
116,33.282336,379.97,438.652
117,33.282042,380.893,439.494
118,33.281736,381.814,440.335
119,33.281424,382.735,441.173
120,33.281106,383.654,442.01
121,33.280782,384.572,442.845
122,33.280446,385.489,443.678
123,33.280104,386.404,444.509
124,33.279756,387.318,445.339
125,33.279402,388.231,446.166
126,33.279036,389.143,446.992
127,33.278664,390.053,447.816
128,33.278286,390.962,448.639
129,33.277896,391.87,449.459
130,33.2775,392.776,450.278
131,33.277092,393.681,451.095
132,33.276678,394.584,451.91
133,33.276252,395.486,452.723
134,33.275814,396.387,453.535
135,33.27537,397.286,454.344
136,33.27492,398.184,455.152
137,33.274452,399.081,455.958
138,33.273978,399.976,456.762
139,33.273492,400.869,457.564
140,33.272994,401.762,458.364
141,33.272484,402.652,459.163
142,33.271962,403.542,459.959
143,33.271428,404.429,460.754
144,33.270882,405.316,461.547
145,33.270324,406.2,462.338
146,33.269748,407.084,463.127
147,33.269166,407.965,463.914
148,33.268566,408.846,464.699
149,33.267954,409.724,465.483
150,33.267324,410.601,466.264
151,33.266682,411.477,467.044
152,33.266022,412.351,467.821
153,33.26535,413.224,468.597
154,33.26466,414.094,469.37
155,33.263958,414.964,470.142
156,33.263232,415.831,470.912
157,33.262488,416.697,471.679
158,33.261732,417.562,472.445
159,33.260952,418.425,473.209
160,33.26016,419.286,473.971
161,33.259344,420.145,474.73
162,33.258504,421.003,475.488
163,33.257652,421.859,476.244
164,33.256776,422.714,476.997
165,33.255876,423.567,477.749
166,33.254952,424.418,478.499
167,33.25401,425.267,479.246
168,33.253038,426.115,479.992
169,33.252048,426.961,480.735
170,33.251028,427.805,481.476
171,33.24999,428.647,482.215
172,33.248922,429.488,482.952
173,33.247824,430.327,483.687
174,33.246702,431.164,484.42
175,33.24555,431.999,485.151
176,33.244368,432.832,485.879
177,33.243156,433.664,486.606
178,33.241914,434.493,487.33
179,33.240642,435.321,488.052
180,33.239334,436.147,488.771
181,33.237996,436.971,489.489
182,33.236622,437.793,490.204
183,33.235212,438.614,490.917
184,33.233766,439.432,491.628
185,33.232284,440.248,492.337
186,33.23076,441.063,493.043
187,33.2292,441.875,493.747
188,33.227604,442.686,494.449
189,33.22596,443.494,495.148
190,33.224274,444.301,495.845
191,33.222546,445.105,496.54
192,33.220776,445.907,497.232
193,33.218958,446.708,497.923
194,33.217092,447.506,498.61
195,33.215178,448.302,499.295
196,33.213216,449.096,499.978
197,33.211206,449.888,500.659
198,33.209142,450.678,501.337
199,33.207018,451.465,502.012
200,33.204846,452.251,502.685
201,33.20262,453.034,503.356
202,33.200334,453.815,504.024
203,33.197988,454.593,504.69
204,33.195582,455.37,505.353
205,33.193116,456.144,506.013
206,33.190584,456.916,506.671
207,33.187986,457.685,507.327
208,33.185328,458.452,507.979
209,33.182598,459.217,508.63
210,33.179802,459.98,509.277
211,33.176928,460.74,509.922
212,33.173988,461.497,510.564
213,33.17097,462.252,511.204
214,33.16788,463.005,511.841
215,33.164706,463.755,512.475
216,33.16146,464.503,513.106
217,33.158124,465.248,513.735
218,33.15471,465.99,514.361
219,33.151212,466.73,514.984
220,33.147624,467.467,515.605
221,33.143952,468.202,516.222
222,33.14019,468.934,516.837
223,33.136332,469.663,517.449
224,33.132378,470.39,518.058
225,33.128328,471.113,518.664
226,33.124188,471.834,519.267
227,33.11994,472.552,519.868
228,33.11559,473.268,520.465
229,33.111138,473.98,521.059
230,33.106584,474.69,521.651
231,33.101916,475.397,522.239
232,33.09714,476.1,522.825
233,33.09225,476.801,523.407
234,33.087252,477.499,523.987
235,33.082134,478.194,524.563
236,33.076896,478.885,525.136
237,33.071538,479.574,525.706
238,33.06606,480.26,526.273
239,33.060456,480.942,526.837
240,33.05472,481.621,527.398
241,33.048864,482.297,527.956
242,33.04287,482.97,528.51
243,33.03675,483.639,529.062
244,33.030492,484.306,529.61
245,33.024096,484.968,530.155
246,33.017562,485.628,530.696
247,33.01089,486.284,531.235
248,33.004068,486.937,531.77
249,32.997108,487.586,532.302
250,32.989998,488.232,532.83
251,32.982738,488.874,533.355
252,32.975328,489.513,533.877
253,32.967762,490.149,534.396
254,32.96004,490.78,534.911
255,32.952168,491.408,535.423
256,32.944134,492.033,535.932
257,32.935938,492.653,536.437
258,32.92758,493.271,536.939
259,32.919054,493.884,537.437
260,32.910366,494.493,537.932
261,32.90151,495.099,538.424
262,32.892486,495.701,538.912
263,32.883288,496.299,539.397
264,32.873916,496.894,539.879
265,32.864376,497.484,540.356
266,32.854656,498.071,540.831
267,32.844756,498.653,541.302
268,32.834676,499.232,541.77
269,32.824422,499.807,542.234
270,32.813982,500.377,542.695
271,32.803362,500.944,543.152
272,32.792556,501.507,543.606
273,32.781564,502.065,544.056
274,32.770386,502.62,544.503
275,32.759022,503.17,544.946
276,32.747466,503.716,545.386
277,32.735724,504.259,545.823
278,32.723784,504.797,546.256
279,32.711658,505.33,546.686
280,32.69934,505.86,547.112
281,32.68683,506.386,547.534
282,32.674128,506.907,547.954
283,32.661228,507.424,548.37
284,32.648136,507.937,548.782
285,32.634846,508.446,549.191
286,32.621364,508.95,549.597
287,32.607684,509.45,549.999
288,32.593812,509.946,550.398
289,32.579742,510.438,550.793
290,32.565474,510.925,551.186
291,32.551008,511.409,551.574
292,32.53635,511.887,551.96
293,32.521494,512.362,552.342
294,32.50644,512.833,552.721
295,32.491194,513.299,553.096
296,32.47575,513.761,553.468
297,32.460108,514.218,553.837
298,32.44428,514.672,554.203
299,32.428248,515.121,554.566
300,32.41203,515.566,554.925
301,32.39562,516.007,555.281
302,32.379012,516.443,555.634
303,32.362218,516.876,555.984
304,32.345232,517.304,556.33
305,32.328054,517.728,556.674
306,32.31069,518.148,557.014
307,32.29314,518.564,557.352
308,32.275398,518.975,557.686
309,32.257476,519.383,558.017
310,32.239368,519.786,558.346
311,32.22108,520.186,558.671
312,32.202612,520.581,558.993
313,32.183958,520.972,559.313
314,32.16513,521.36,559.629
315,32.146122,521.743,559.943
316,32.12694,522.123,560.254
317,32.10759,522.498,560.562
318,32.08806,522.87,560.867
319,32.068362,523.238,561.169
320,32.048496,523.602,561.469
321,32.028462,523.962,561.766
322,32.008266,524.319,562.06
323,31.987908,524.671,562.352
324,31.967382,525.02,562.641
325,31.9467,525.366,562.927
326,31.925862,525.708,563.211
327,31.904868,526.046,563.492
328,31.883724,526.38,563.771
329,31.862424,526.711,564.047
330,31.840974,527.039,564.321
331,31.81938,527.363,564.592
332,31.797642,527.684,564.861
333,31.77576,528.001,565.128
334,31.753734,528.315,565.392
335,31.731576,528.626,565.654
336,31.709274,528.933,565.913
337,31.686846,529.238,566.171
338,31.66428,529.539,566.426
339,31.641588,529.837,566.679
340,31.618764,530.131,566.93
341,31.59582,530.423,567.178
342,31.57275,530.712,567.425
343,31.54956,530.998,567.669
344,31.526256,531.281,567.912
345,31.502832,531.561,568.152
346,31.479294,531.838,568.39
347,31.455642,532.112,568.627
348,31.431888,532.384,568.861
349,31.40802,532.653,569.094
350,31.38405,532.919,569.325
351,31.359978,533.183,569.553
352,31.335804,533.444,569.78
353,31.311534,533.702,570.006
354,31.287168,533.958,570.229
355,31.262706,534.211,570.451
356,31.238154,534.462,570.671
357,31.213518,534.711,570.889
358,31.188786,534.957,571.106
359,31.163976,535.201,571.321
360,31.139076,535.443,571.534
361,31.114098,535.683,571.746
362,31.089042,535.92,571.956
363,31.063914,536.155,572.165
364,31.038708,536.388,572.372
365,31.013424,536.619,572.578
366,30.988074,536.848,572.782
367,30.962658,537.075,572.985
368,30.93717,537.301,573.186
369,30.911622,537.524,573.386
370,30.886008,537.745,573.585
371,30.86034,537.965,573.782
372,30.834606,538.182,573.978
373,30.808818,538.398,574.173
374,30.78297,538.613,574.366
375,30.757074,538.825,574.559
376,30.731124,539.036,574.749
377,30.70512,539.245,574.939
378,30.679074,539.453,575.128
379,30.65298,539.659,575.315
380,30.626838,539.864,575.501
381,30.600654,540.067,575.686
382,30.574434,540.269,575.87
383,30.548166,540.469,576.053
384,30.521862,540.668,576.234
385,30.495522,540.866,576.415
386,30.469146,541.062,576.595
387,30.442734,541.257,576.773
388,30.416292,541.451,576.951
389,30.38982,541.644,577.127
390,30.363312,541.835,577.303
391,30.33678,542.025,577.478
392,30.310224,542.214,577.651
393,30.283638,542.402,577.824
394,30.257028,542.589,577.996
395,30.230394,542.774,578.167
396,30.203742,542.959,578.337
397,30.177066,543.143,578.506
398,30.150372,543.326,578.675
399,30.123654,543.507,578.842
400,30.096924,543.688,579.009
401,30.070176,543.868,579.175
402,30.043416,544.047,579.34
403,30.016638,544.225,579.504
404,29.989848,544.402,579.667
405,29.963052,544.579,579.83
406,29.936238,544.754,579.992
407,29.909412,544.929,580.153
408,29.88258,545.103,580.314
409,29.855742,545.277,580.474
410,29.828898,545.449,580.633
411,29.802042,545.621,580.791
412,29.77518,545.793,580.949
413,29.748318,545.963,581.106
414,29.72145,546.133,581.262
415,29.694576,546.302,581.418
416,29.667708,546.471,581.573
417,29.640828,546.639,581.727
418,29.613954,546.807,581.881
419,29.587074,546.974,582.034
420,29.5602,547.14,582.187
421,29.533326,547.306,582.339
422,29.506452,547.471,582.49
423,29.479578,547.636,582.641
424,29.45271,547.8,582.791
425,29.425842,547.964,582.941
426,29.39898,548.127,583.09
427,29.372124,548.29,583.238
428,29.345274,548.453,583.386
429,29.318424,548.615,583.534
430,29.291586,548.777,583.68
431,29.264754,548.938,583.827
432,29.237928,549.099,583.973
433,29.211108,549.259,584.118
434,29.184294,549.419,584.263
435,29.157492,549.579,584.407
436,29.130696,549.738,584.551
437,29.103912,549.897,584.694
438,29.077134,550.056,584.837
439,29.050368,550.214,584.979
440,29.023608,550.372,585.121
441,28.996866,550.53,585.262
442,28.97013,550.687,585.403
443,28.943406,550.845,585.543
444,28.916694,551.001,585.683
445,28.889988,551.158,585.823
446,28.8633,551.314,585.962
447,28.836624,551.47,586.1
448,28.809954,551.626,586.238
449,28.783302,551.782,586.376
450,28.756662,551.937,586.513
451,28.730034,552.092,586.65
452,28.703424,552.247,586.786
453,28.67682,552.401,586.922
454,28.650234,552.555,587.058
455,28.62366,552.71,587.193
456,28.597098,552.863,587.327
457,28.570548,553.017,587.461
458,28.544016,553.17,587.595
459,28.517502,553.324,587.729
460,28.490994,553.477,587.862
461,28.464504,553.63,587.994
462,28.438026,553.782,588.126
463,28.411566,553.935,588.258
464,28.385118,554.087,588.389
465,28.358688,554.239,588.52
466,28.33227,554.391,588.651
467,28.305864,554.543,588.781
468,28.279476,554.694,588.911
469,28.253106,554.845,589.04
470,28.226748,554.997,589.169
471,28.200402,555.148,589.298
472,28.174074,555.298,589.426
473,28.147758,555.449,589.553
474,28.12146,555.6,589.681
475,28.095174,555.75,589.808
476,28.0689,555.9,589.935
477,28.042644,556.05,590.061
478,28.016406,556.2,590.187
479,27.99018,556.349,590.312
480,27.963966,556.499,590.437
481,27.93777,556.648,590.562
482,27.911586,556.797,590.686
483,27.88542,556.946,590.81
484,27.859266,557.095,590.934
485,27.833124,557.243,591.057
486,27.807,557.392,591.18
487,27.780888,557.54,591.303
488,27.754788,557.688,591.425
489,27.728706,557.836,591.547
490,27.702636,557.984,591.668
491,27.676578,558.131,591.789
492,27.650538,558.279,591.91
493,27.62451,558.426,592.03
494,27.598494,558.573,592.15
495,27.572496,558.72,592.269
496,27.546504,558.866,592.389
497,27.52053,559.013,592.507
498,27.494568,559.159,592.626
499,27.468618,559.305,592.744
500,27.44268,559.451,592.862
501,27.41676,559.596,592.979
502,27.390846,559.742,593.096
503,27.36495,559.887,593.213
504,27.33906,560.032,593.329
505,27.313188,560.177,593.445
506,27.287322,560.322,593.561
507,27.261474,560.466,593.676
508,27.235632,560.61,593.791
509,27.209802,560.755,593.905
510,27.18399,560.898,594.019
511,27.158184,561.042,594.133
512,27.13239,561.185,594.246
513,27.106608,561.328,594.36
514,27.080832,561.471,594.472
515,27.055068,561.614,594.585
516,27.029316,561.756,594.696
517,27.003576,561.899,594.808
518,26.977848,562.04,594.919
519,26.952126,562.182,595.03
520,26.926416,562.324,595.141
521,26.900712,562.465,595.251
522,26.87502,562.606,595.361
523,26.849334,562.746,595.47
524,26.82366,562.887,595.579
525,26.797998,563.027,595.688
526,26.772336,563.167,595.796
527,26.746692,563.306,595.904
528,26.721048,563.446,596.012
529,26.695422,563.585,596.119
530,26.669796,563.723,596.226
531,26.644182,563.862,596.333
532,26.618574,564,596.439
533,26.592972,564.138,596.545
534,26.567376,564.275,596.651
535,26.541792,564.412,596.756
536,26.516214,564.549,596.861
537,26.490642,564.686,596.965
538,26.465076,564.822,597.069
539,26.439516,564.958,597.173
540,26.413968,565.094,597.276
541,26.38842,565.229,597.379
542,26.362878,565.364,597.482
543,26.337342,565.499,597.584
544,26.311812,565.633,597.686
545,26.286294,565.767,597.788
546,26.26077,565.9,597.889
547,26.235258,566.033,597.99
548,26.209752,566.166,598.091
549,26.184246,566.299,598.191
550,26.158752,566.431,598.291
551,26.133258,566.563,598.39
552,26.107764,566.694,598.489
553,26.082282,566.825,598.588
554,26.0568,566.956,598.686
555,26.031318,567.086,598.784
556,26.005848,567.216,598.882
557,25.980372,567.345,598.979
558,25.954908,567.474,599.076
559,25.929444,567.603,599.173
560,25.90398,567.731,599.269
561,25.878522,567.859,599.365
562,25.85307,567.986,599.461
563,25.827618,568.113,599.556
564,25.802166,568.24,599.651
565,25.77672,568.366,599.745
566,25.751274,568.492,599.839
567,25.725828,568.617,599.933
568,25.700388,568.742,600.027
569,25.674948,568.866,600.12
570,25.649508,568.99,600.213
571,25.624068,569.114,600.305
572,25.598634,569.237,600.397
573,25.5732,569.36,600.489
574,25.547766,569.482,600.58
575,25.522338,569.604,600.671
576,25.496904,569.725,600.762
577,25.471476,569.846,600.852
578,25.446042,569.966,600.942
579,25.420614,570.086,601.032
580,25.395186,570.205,601.121
581,25.369758,570.324,601.21
582,25.34433,570.443,601.298
583,25.318902,570.561,601.387
584,25.293474,570.678,601.474
585,25.268046,570.795,601.562
586,25.242618,570.912,601.649
587,25.21719,571.028,601.736
588,25.191762,571.143,601.822
589,25.166328,571.258,601.909
590,25.1409,571.373,601.994
591,25.115472,571.487,602.08
592,25.090038,571.601,602.165
593,25.064604,571.714,602.25
594,25.039176,571.826,602.334
595,25.013742,571.938,602.418
596,24.988308,572.05,602.502
597,24.962868,572.161,602.586
598,24.937434,572.272,602.669
599,24.911994,572.382,602.752
600,24.886554,572.491,602.834
601,24.861114,572.6,602.916
602,24.835674,572.709,602.998
603,24.810228,572.817,603.079
604,24.784788,572.924,603.16
605,24.759342,573.031,603.241
606,24.733896,573.138,603.322
607,24.708444,573.244,603.402
608,24.682992,573.349,603.482
609,24.65754,573.454,603.561
610,24.632088,573.558,603.64
611,24.60663,573.662,603.719
612,24.581178,573.765,603.798
613,24.555714,573.868,603.876
614,24.530256,573.971,603.954
615,24.504792,574.072,604.031
616,24.479328,574.174,604.108
617,24.453864,574.274,604.185
618,24.428394,574.375,604.262
619,24.40293,574.474,604.338
620,24.377454,574.574,604.414
621,24.351984,574.672,604.49
622,24.326508,574.77,604.565
623,24.301032,574.868,604.64
624,24.275556,574.965,604.715
625,24.250074,575.062,604.789
626,24.224592,575.158,604.864
627,24.19911,575.253,604.937
628,24.173628,575.348,605.011
629,24.14814,575.443,605.084
630,24.122652,575.537,605.157
631,24.097164,575.631,605.23
632,24.07167,575.724,605.302
633,24.046176,575.816,605.374
634,24.020682,575.908,605.446
635,23.995188,576,605.517
636,23.969694,576.091,605.588
637,23.944194,576.181,605.659
638,23.918694,576.271,605.73
639,23.893194,576.361,605.8
640,23.867688,576.45,605.87
641,23.842188,576.538,605.94
642,23.816682,576.626,606.009
643,23.791176,576.714,606.078
644,23.76567,576.801,606.147
645,23.740164,576.887,606.216
646,23.714652,576.973,606.284
647,23.689146,577.059,606.352
648,23.663634,577.144,606.42
649,23.638122,577.229,606.487
650,23.612616,577.313,606.555
651,23.587104,577.396,606.622
652,23.561592,577.48,606.688
653,23.53608,577.562,606.755
654,23.510562,577.645,606.821
655,23.48505,577.727,606.887
656,23.459538,577.808,606.953
657,23.434026,577.889,607.018
658,23.408514,577.969,607.083
659,23.383002,578.049,607.148
660,23.357484,578.129,607.213
661,23.331972,578.208,607.277
662,23.30646,578.287,607.342
663,23.280948,578.365,607.406
664,23.255436,578.443,607.469
665,23.22993,578.52,607.533
666,23.204418,578.597,607.596
667,23.178912,578.674,607.659
668,23.1534,578.75,607.722
669,23.127894,578.825,607.784
670,23.102388,578.901,607.847
671,23.076888,578.975,607.909
672,23.051382,579.05,607.97
673,23.025882,579.124,608.032
674,23.000382,579.198,608.094
675,22.974882,579.271,608.155
676,22.949388,579.344,608.216
677,22.923894,579.416,608.276
678,22.8984,579.488,608.337
679,22.872906,579.56,608.397
