Time,Temperature,Mass
[s],[K],[mg]
0,297.5898,5.20188
1,297.649,5.20175
2,297.6556,5.20163
3,297.6763,5.20149
4,297.7174,5.20135
5,297.7755,5.20122
6,297.8595,5.2011
7,297.9621,5.20096
8,298.0622,5.20089
9,298.1643,5.20073
10,298.2812,5.20043
11,298.4039,5.20001
12,298.5236,5.19973
13,298.6514,5.19948
14,298.7922,5.19922
15,298.9133,5.19894
16,299.0553,5.19885
17,299.1965,5.19872
18,299.3451,5.19862
19,299.4809,5.19853
20,299.6374,5.19844
21,299.7543,5.19834
22,299.9098,5.19825
23,300.0493,5.19815
24,300.1911,5.19805
25,300.3306,5.19795
26,300.4879,5.19784
27,300.6278,5.19765
28,300.7753,5.19807
29,300.9206,5.19759
30,301.071,5.19739
31,301.2182,5.19722
32,301.353,5.19733
33,301.4976,5.19709
34,301.6517,5.19695
35,301.785,5.19684
36,301.9374,5.19683
37,302.0806,5.19671
38,302.2214,5.19661
39,302.3716,5.19652
40,302.5212,5.19645
41,302.6689,5.19634
42,302.8201,5.19624
43,302.9669,5.19613
44,303.119,5.196
45,303.2608,5.19587
46,303.4068,5.19575
47,303.5521,5.19561
48,303.6975,5.19545
49,303.844,5.19527
50,303.9905,5.19512
51,304.142,5.19496
52,304.2899,5.19481
53,304.4373,5.19464
54,304.5882,5.19445
55,304.7349,5.19426
56,304.8861,5.19405
57,305.0347,5.19383
58,305.1806,5.19361
59,305.3309,5.19341
60,305.4848,5.1932
61,305.6269,5.19298
62,305.7802,5.19277
63,305.9348,5.19258
64,306.0858,5.1924
65,306.2471,5.19224
66,306.3904,5.19208
67,306.5351,5.19191
68,306.6886,5.19174
69,306.8447,5.1916
70,307.0031,5.19144
71,307.1545,5.19128
72,307.2957,5.19113
73,307.4543,5.19097
74,307.6068,5.19081
75,307.7528,5.19065
76,307.9092,5.19049
77,308.0591,5.19033
78,308.208,5.19017
79,308.3541,5.19001
80,308.5323,5.18985
81,308.6749,5.18974
82,308.8153,5.18962
83,308.9739,5.1895
84,309.1363,5.18939
85,309.274,5.18928
86,309.424,5.18916
87,309.5786,5.18903
88,309.7332,5.18891
89,309.883,5.18872
90,310.0502,5.18857
91,310.1987,5.18843
92,310.3587,5.18828
93,310.5011,5.18812
94,310.6612,5.18799
95,310.816,5.18786
96,310.9746,5.18772
97,311.1155,5.1876
98,311.2824,5.1875
99,311.4297,5.18737
100,311.5837,5.18724
101,311.7346,5.1871
102,311.8885,5.18698
103,312.049,5.18684
104,312.2054,5.1867
105,312.3632,5.18658
106,312.5144,5.18645
107,312.6742,5.18631
108,312.8181,5.18618
109,312.9803,5.18608
110,313.1401,5.18595
111,313.2989,5.18581
112,313.4439,5.18567
113,313.5983,5.18556
114,313.7521,5.18544
115,313.9057,5.1853
116,314.0614,5.18516
117,314.2198,5.18503
118,314.376,5.18492
119,314.5304,5.18479
120,314.6739,5.18465
121,314.8348,5.18452
122,314.9839,5.18443
123,315.1431,5.18431
124,315.3086,5.18418
125,315.4678,5.18405
126,315.6255,5.18394
127,315.7819,5.18383
128,315.9477,5.18368
129,316.094,5.18351
130,316.2499,5.18338
131,316.3983,5.18325
132,316.5504,5.18311
133,316.7113,5.18297
134,316.8747,5.18284
135,317.0269,5.18272
136,317.1787,5.18262
137,317.3333,5.18253
138,317.5001,5.1824
139,317.6443,5.1823
140,317.8014,5.18222
141,317.9661,5.1821
142,318.1213,5.18198
143,318.2734,5.18186
144,318.4349,5.18176
145,318.594,5.18167
146,318.7467,5.18155
147,318.9168,5.18142
148,319.0621,5.1813
149,319.218,5.18123
150,319.3781,5.18113
151,319.5278,5.18101
152,319.6922,5.18091
153,319.846,5.1808
154,320.0114,5.18072
155,320.1647,5.18064
156,320.314,5.18054
157,320.4798,5.18041
158,320.6417,5.18033
159,320.7863,5.18026
160,320.9467,5.18016
161,321.1041,5.18006
162,321.2693,5.17995
163,321.4323,5.17985
164,321.5743,5.17976
165,321.739,5.17968
166,321.8921,5.17956
167,322.0453,5.17943
168,322.2092,5.17933
169,322.3599,5.17925
170,322.5199,5.17914
171,322.6753,5.17901
172,322.8315,5.17891
173,322.9994,5.17883
174,323.1608,5.17875
175,323.3189,5.17867
176,323.4729,5.17859
177,323.6251,5.17851
178,323.7868,5.17843
179,323.9439,5.17838
180,324.1054,5.17831
181,324.2583,5.17822
182,324.418,5.17814
183,324.5803,5.1781
184,324.7465,5.17808
185,324.8981,5.17803
186,325.0524,5.17796
187,325.2166,5.17792
188,325.3786,5.17787
189,325.5326,5.17783
190,325.6956,5.17779
191,325.8436,5.17771
192,326.009,5.17762
193,326.1709,5.17753
194,326.3223,5.17749
195,326.488,5.17743
196,326.6416,5.17734
197,326.808,5.17724
198,326.9575,5.17716
199,327.112,5.17712
200,327.2882,5.17706
201,327.4432,5.17697
202,327.5951,5.17689
203,327.7514,5.17682
204,327.9175,5.17674
205,328.0753,5.17667
206,328.2292,5.17662
207,328.3846,5.17651
208,328.5492,5.1764
209,328.7029,5.17633
210,328.8691,5.17629
211,329.0298,5.1762
212,329.1909,5.1761
213,329.3511,5.17602
214,329.5055,5.17597
215,329.6703,5.17591
216,329.8216,5.17584
217,329.9783,5.17577
218,330.1368,5.17569
219,330.2884,5.17562
220,330.4545,5.17557
221,330.6258,5.17551
222,330.7906,5.17547
223,330.948,5.1754
224,331.1064,5.17533
225,331.2648,5.17529
226,331.4256,5.17528
227,331.5823,5.1752
228,331.7393,5.17511
229,331.8973,5.17503
230,332.0505,5.17498
231,332.2181,5.17491
232,332.378,5.17483
233,332.547,5.17476
234,332.7091,5.1747
235,332.8713,5.17466
236,333.0235,5.17462
237,333.1925,5.17458
238,333.35,5.17455
239,333.5039,5.1745
240,333.6706,5.17444
241,333.8295,5.17442
242,333.9861,5.1744
243,334.1504,5.17434
244,334.308,5.17428
245,334.4654,5.17424
246,334.6295,5.17423
247,334.7829,5.17422
248,334.9397,5.17417
249,335.1048,5.17411
250,335.2637,5.17405
251,335.4279,5.17405
252,335.5887,5.17402
253,335.7458,5.17396
254,335.9156,5.17389
255,336.0793,5.17386
256,336.2395,5.17382
257,336.3936,5.17377
258,336.5573,5.17372
259,336.7167,5.17369
260,336.8791,5.17365
261,337.0294,5.17359
262,337.1919,5.17354
263,337.3518,5.17352
264,337.5089,5.17346
265,337.6731,5.17338
266,337.8457,5.1733
267,338.007,5.17326
268,338.1655,5.17324
269,338.3236,5.17321
270,338.4749,5.17314
271,338.6448,5.17307
272,338.801,5.17305
273,338.9676,5.17306
274,339.1253,5.17305
275,339.2892,5.173
276,339.4482,5.17294
277,339.6182,5.17291
278,339.777,5.17291
279,339.9404,5.17288
280,340.1009,5.17281
281,340.2587,5.17276
282,340.4251,5.17271
283,340.5814,5.17265
284,340.7361,5.17261
285,340.9009,5.17257
286,341.0609,5.17254
287,341.2287,5.1725
288,341.3989,5.17246
289,341.5515,5.17242
290,341.7202,5.1724
291,341.8797,5.1724
292,342.0456,5.17234
293,342.1951,5.17226
294,342.3556,5.1722
295,342.528,5.17221
296,342.6778,5.17219
297,342.8461,5.17214
298,343.0096,5.17206
299,343.1722,5.17201
300,343.3283,5.172
301,343.4972,5.172
302,343.6547,5.17198
303,343.8264,5.17193
304,343.9932,5.17189
305,344.143,5.17186
306,344.3089,5.17184
307,344.4692,5.17179
308,344.6331,5.1717
309,344.7944,5.17164
310,344.96,5.17159
311,345.124,5.1715
312,345.2849,5.17145
313,345.4389,5.17143
314,345.5999,5.1714
315,345.7647,5.17138
316,345.929,5.17135
317,346.0888,5.17131
318,346.2402,5.17129
319,346.4098,5.17129
320,346.5809,5.17123
321,346.74,5.17117
322,346.9,5.17112
323,347.0698,5.17109
324,347.2293,5.17112
325,347.3935,5.17112
326,347.5638,5.17108
327,347.7163,5.17103
328,347.8599,5.17102
329,348.0359,5.17103
330,348.1989,5.17103
331,348.3699,5.171
332,348.5234,5.17095
333,348.6839,5.17092
334,348.8516,5.17091
335,349.0074,5.17092
336,349.1658,5.17089
337,349.3346,5.17081
338,349.5,5.17076
339,349.6627,5.17072
340,349.8203,5.17067
341,349.9849,5.17064
342,350.1513,5.17061
343,350.3152,5.17058
344,350.4752,5.17057
345,350.6356,5.17057
346,350.7948,5.17055
347,350.9602,5.17053
348,351.1335,5.17054
349,351.2851,5.17051
350,351.4561,5.17048
351,351.6134,5.17043
352,351.7813,5.17037
353,351.9468,5.17034
354,352.1018,5.17032
355,352.272,5.17029
356,352.4328,5.1702
357,352.6047,5.17013
358,352.7635,5.17009
359,352.9328,5.17008
360,353.1,5.17006
361,353.2607,5.16999
362,353.4192,5.16993
363,353.5909,5.16986
364,353.7386,5.16982
365,353.9037,5.16979
366,354.0825,5.16975
367,354.2412,5.1697
368,354.4032,5.16968
369,354.5629,5.16969
370,354.7288,5.16969
371,354.8919,5.16968
372,355.0533,5.16968
373,355.2181,5.16964
374,355.3834,5.16962
375,355.5473,5.16962
376,355.7028,5.16958
377,355.8721,5.16955
378,356.036,5.16953
379,356.2071,5.16951
380,356.3565,5.16949
381,356.5273,5.16947
382,356.695,5.16943
383,356.8477,5.1694
384,357.0075,5.16943
385,357.1822,5.1694
386,357.3533,5.16936
387,357.5169,5.1693
388,357.6735,5.16925
389,357.8403,5.16926
390,358.0112,5.16926
391,358.1711,5.16925
392,358.3301,5.16922
393,358.4939,5.16919
394,358.6531,5.16918
395,358.8312,5.1692
396,358.9849,5.16922
397,359.1443,5.16916
398,359.318,5.16909
399,359.4808,5.16902
400,359.6458,5.16898
401,359.806,5.16896
402,359.9762,5.16892
403,360.1379,5.16886
404,360.3067,5.16879
405,360.4646,5.16878
406,360.6334,5.16874
407,360.7908,5.1687
408,360.9531,5.16866
409,361.1181,5.1686
410,361.2932,5.16857
411,361.4555,5.16853
412,361.6297,5.16849
413,361.7857,5.16848
414,361.9571,5.16847
415,362.1221,5.16846
416,362.2822,5.16845
417,362.4419,5.16842
418,362.6026,5.16836
419,362.7722,5.16832
420,362.9407,5.1683
421,363.1022,5.16832
422,363.2609,5.1683
423,363.4308,5.16825
424,363.5973,5.16817
425,363.7686,5.16814
426,363.9261,5.16813
427,364.0943,5.16814
428,364.2562,5.16816
429,364.4362,5.16813
430,364.5945,5.16811
431,364.7615,5.16809
432,364.9194,5.16809
433,365.0777,5.1681
434,365.2492,5.16805
435,365.4177,5.16799
436,365.5851,5.16793
437,365.7474,5.16791
438,365.9143,5.16792
439,366.0708,5.16792
440,366.2374,5.16789
441,366.4104,5.16785
442,366.5708,5.16784
443,366.7413,5.1678
444,366.903,5.16779
445,367.0711,5.16776
446,367.2345,5.16769
447,367.4027,5.16765
448,367.5698,5.16761
449,367.7278,5.16757
450,367.8998,5.16756
451,368.0645,5.16753
452,368.2263,5.1675
453,368.3886,5.1675
454,368.5483,5.16747
455,368.7222,5.16744
456,368.8913,5.16739
457,369.048,5.1673
458,369.218,5.16726
459,369.3791,5.16726
460,369.5499,5.16725
461,369.7257,5.16719
462,369.8865,5.16716
463,370.0576,5.16711
464,370.2251,5.16708
465,370.3807,5.1671
466,370.5447,5.16707
467,370.7184,5.16705
468,370.876,5.16699
469,371.0459,5.16697
470,371.206,5.16698
471,371.3761,5.16701
472,371.5467,5.16704
473,371.7113,5.16702
474,371.8692,5.16699
475,372.0289,5.16694
476,372.2097,5.16689
477,372.3757,5.16685
478,372.5419,5.16681
479,372.7053,5.16678
480,372.8682,5.16674
481,373.0312,5.1667
482,373.2,5.16672
483,373.362,5.1667
484,373.535,5.16667
485,373.686,5.16664
486,373.854,5.16659
487,374.029,5.16656
488,374.196,5.16653
489,374.376,5.16649
490,374.538,5.16639
491,374.701,5.16633
492,374.866,5.16631
493,375.034,5.1663
494,375.198,5.16627
495,375.361,5.16626
496,375.531,5.16619
497,375.705,5.16611
498,375.873,5.16609
499,376.032,5.16606
500,376.197,5.16606
501,376.363,5.16604
502,376.533,5.16599
503,376.698,5.16598
504,376.859,5.16594
505,377.026,5.16592
506,377.189,5.16588
507,377.358,5.1658
508,377.526,5.16573
509,377.696,5.16567
510,377.856,5.16563
511,378.037,5.16561
512,378.202,5.16559
513,378.368,5.16559
514,378.533,5.16559
515,378.701,5.16557
516,378.863,5.16556
517,379.033,5.16554
518,379.199,5.16548
519,379.367,5.1654
520,379.53,5.16535
521,379.689,5.16532
522,379.862,5.16534
523,380.036,5.16533
524,380.187,5.16529
525,380.352,5.16521
526,380.528,5.16515
527,380.694,5.16511
528,380.861,5.16512
529,381.034,5.16514
530,381.204,5.16511
531,381.372,5.16508
532,381.534,5.16503
533,381.703,5.16499
534,381.866,5.16498
535,382.039,5.16496
536,382.194,5.16495
537,382.363,5.16491
538,382.532,5.16491
539,382.709,5.16489
540,382.88,5.16486
541,383.041,5.16485
542,383.203,5.1648
543,383.372,5.16471
544,383.542,5.16466
545,383.707,5.16461
546,383.872,5.16456
547,384.043,5.16454
548,384.203,5.16447
549,384.371,5.16438
550,384.536,5.16432
551,384.709,5.16429
552,384.87,5.16428
553,385.035,5.16427
554,385.205,5.16424
555,385.38,5.16422
556,385.542,5.16416
557,385.714,5.16413
558,385.886,5.16413
559,386.046,5.16407
560,386.213,5.16405
561,386.375,5.164
562,386.548,5.16394
563,386.716,5.16393
564,386.878,5.1639
565,387.041,5.16389
566,387.216,5.1639
567,387.383,5.16384
568,387.556,5.16378
569,387.715,5.16373
570,387.877,5.16367
571,388.043,5.1636
572,388.223,5.16355
573,388.393,5.16349
574,388.551,5.16343
575,388.719,5.16342
576,388.887,5.16342
577,389.057,5.16341
578,389.222,5.16341
579,389.386,5.16339
580,389.563,5.16331
581,389.726,5.16323
582,389.888,5.16315
583,390.065,5.16311
584,390.233,5.16306
585,390.406,5.16301
586,390.579,5.16295
587,390.738,5.16293
588,390.908,5.16294
589,391.077,5.16291
590,391.239,5.16287
591,391.406,5.16281
592,391.569,5.16274
593,391.744,5.16269
594,391.915,5.16265
595,392.073,5.16261
596,392.236,5.16263
597,392.407,5.16258
598,392.584,5.16249
599,392.742,5.16242
600,392.906,5.16233
601,393.08,5.1623
602,393.239,5.16229
603,393.416,5.16228
604,393.579,5.16231
605,393.762,5.16226
606,393.923,5.16219
607,394.092,5.16213
608,394.259,5.16206
609,394.433,5.16206
610,394.604,5.16207
611,394.763,5.16205
612,394.929,5.16203
613,395.103,5.16198
614,395.269,5.16192
615,395.431,5.16181
616,395.611,5.16167
617,395.773,5.16155
618,395.942,5.16147
619,396.119,5.16141
620,396.281,5.16139
621,396.446,5.16137
622,396.609,5.16135
623,396.776,5.16132
624,396.942,5.16126
625,397.117,5.16118
626,397.282,5.16109
627,397.449,5.16101
628,397.621,5.16092
629,397.786,5.16092
630,397.958,5.1609
631,398.133,5.16086
632,398.289,5.16092
633,398.466,5.1609
634,398.634,5.16086
635,398.797,5.16082
636,398.957,5.16067
637,399.126,5.16054
638,399.292,5.16041
639,399.466,5.16031
640,399.641,5.16026
641,399.816,5.16022
642,399.978,5.16021
643,400.142,5.16019
644,400.306,5.16021
645,400.476,5.16014
646,400.645,5.16005
647,400.82,5.15996
648,400.986,5.1598
649,401.149,5.15974
650,401.323,5.15972
651,401.496,5.15969
652,401.663,5.15968
653,401.828,5.15973
654,401.997,5.15972
655,402.17,5.1597
656,402.342,5.15962
657,402.509,5.15947
658,402.681,5.15933
659,402.846,5.1592
660,403.014,5.15911
661,403.171,5.15906
662,403.343,5.15903
663,403.515,5.15899
664,403.686,5.15894
665,403.847,5.15894
666,404.016,5.1589
667,404.184,5.15884
668,404.358,5.15876
669,404.525,5.15863
670,404.692,5.15851
671,404.874,5.15838
672,405.041,5.15834
673,405.209,5.15831
674,405.381,5.1583
675,405.549,5.15829
676,405.717,5.15828
677,405.88,5.15831
678,406.053,5.15826
679,406.22,5.15818
680,406.385,5.15811
681,406.564,5.15796
682,406.729,5.15786
683,406.904,5.15777
684,407.064,5.15765
685,407.228,5.15753
686,407.407,5.15746
687,407.575,5.15741
688,407.737,5.15735
689,407.897,5.15739
690,408.078,5.1574
691,408.252,5.15739
692,408.419,5.15738
693,408.587,5.15726
694,408.754,5.15716
695,408.932,5.15706
696,409.099,5.15691
697,409.269,5.15678
698,409.432,5.15668
699,409.603,5.1566
700,409.778,5.15658
701,409.943,5.15657
702,410.114,5.15654
703,410.279,5.15652
704,410.444,5.15647
705,410.617,5.15642
706,410.789,5.15633
707,410.957,5.15622
708,411.129,5.15613
709,411.289,5.15598
710,411.464,5.15587
711,411.633,5.15577
712,411.805,5.15564
713,411.971,5.15547
714,412.139,5.15532
715,412.3,5.15523
716,412.475,5.15517
717,412.64,5.15513
718,412.814,5.15512
719,412.976,5.15511
720,413.159,5.15506
721,413.331,5.15504
722,413.486,5.15499
723,413.661,5.15493
724,413.828,5.15486
725,414.004,5.15476
726,414.178,5.15462
727,414.344,5.15448
728,414.514,5.15432
729,414.683,5.1542
730,414.848,5.15406
731,415.016,5.15394
732,415.196,5.15385
733,415.362,5.1538
734,415.526,5.15382
735,415.689,5.1538
736,415.871,5.15376
737,416.034,5.15374
738,416.21,5.15377
739,416.374,5.15375
740,416.541,5.15371
741,416.71,5.15365
742,416.884,5.15348
743,417.05,5.15334
744,417.218,5.15319
745,417.39,5.15305
746,417.564,5.15291
747,417.735,5.1528
748,417.908,5.1527
749,418.073,5.15261
750,418.24,5.15247
751,418.418,5.15234
752,418.571,5.15224
753,418.749,5.15216
754,418.921,5.15215
755,419.092,5.15213
756,419.262,5.15211
757,419.432,5.15207
758,419.6,5.15202
759,419.77,5.15194
760,419.933,5.15186
761,420.107,5.15174
762,420.281,5.1516
763,420.445,5.15148
764,420.613,5.15134
765,420.781,5.15123
766,420.95,5.15108
767,421.129,5.15095
768,421.304,5.15084
769,421.472,5.15074
770,421.636,5.15075
771,421.801,5.15073
772,421.973,5.1507
773,422.145,5.1507
774,422.314,5.15076
775,422.481,5.15076
776,422.652,5.15073
777,422.82,5.15069
778,422.994,5.15056
779,423.159,5.15044
780,423.332,5.15031
781,423.507,5.15017
782,423.668,5.15002
783,423.837,5.1499
784,424.007,5.14979
785,424.183,5.14969
786,424.358,5.14957
787,424.526,5.14942
788,424.69,5.14927
789,424.858,5.14912
790,425.031,5.14895
791,425.205,5.14887
792,425.372,5.14883
793,425.541,5.14882
794,425.715,5.14886
795,425.879,5.14883
796,426.047,5.14879
797,426.22,5.14876
798,426.387,5.14867
799,426.559,5.14862
800,426.727,5.14858
801,426.907,5.14851
802,427.08,5.1484
803,427.241,5.14828
804,427.409,5.14816
805,427.579,5.14803
806,427.75,5.14786
807,427.92,5.14774
808,428.09,5.14764
809,428.266,5.14754
810,428.438,5.14744
811,428.607,5.1473
812,428.772,5.14717
813,428.943,5.14704
814,429.107,5.14687
815,429.286,5.14678
816,429.453,5.14674
817,429.623,5.1467
818,429.797,5.14669
819,429.969,5.14672
820,430.132,5.1467
821,430.296,5.14668
822,430.465,5.14662
823,430.642,5.14654
824,430.813,5.14645
825,430.986,5.14633
826,431.154,5.14624
827,431.325,5.1461
828,431.492,5.14598
829,431.666,5.14587
830,431.836,5.14579
831,432.004,5.14578
832,432.181,5.14575
833,432.35,5.1457
834,432.521,5.14568
835,432.683,5.14572
836,432.858,5.14571
837,433.035,5.14568
838,433.196,5.14565
839,433.365,5.14553
840,433.536,5.14542
841,433.707,5.14529
842,433.873,5.14517
843,434.043,5.14503
844,434.216,5.14491
845,434.385,5.14481
846,434.559,5.14469
847,434.721,5.14454
848,434.889,5.14438
849,435.058,5.14425
850,435.231,5.14414
851,435.403,5.14413
852,435.581,5.14413
853,435.748,5.14413
854,435.921,5.14417
855,436.09,5.1442
856,436.257,5.14416
857,436.431,5.14409
858,436.603,5.144
859,436.765,5.14387
860,436.938,5.14377
861,437.097,5.14369
862,437.273,5.14362
863,437.445,5.14349
864,437.622,5.14334
865,437.794,5.1432
866,437.958,5.14304
867,438.123,5.14296
868,438.304,5.14294
869,438.469,5.14295
870,438.64,5.14296
871,438.808,5.143
872,438.978,5.14298
873,439.143,5.14293
874,439.319,5.14288
875,439.492,5.14275
876,439.666,5.14267
877,439.836,5.1426
878,440.004,5.14252
879,440.172,5.1424
880,440.344,5.14227
881,440.52,5.14214
882,440.696,5.14201
883,440.853,5.14185
884,441.021,5.14178
885,441.201,5.14176
886,441.373,5.14174
887,441.538,5.14174
888,441.704,5.14178
889,441.871,5.14177
890,442.041,5.14174
891,442.217,5.14166
892,442.388,5.14158
893,442.561,5.1415
894,442.73,5.14139
895,442.903,5.14131
896,443.063,5.14117
897,443.235,5.14105
898,443.405,5.14093
899,443.573,5.14079
900,443.75,5.14069
901,443.919,5.14058
902,444.085,5.14045
903,444.254,5.14034
904,444.431,5.14023
905,444.598,5.14017
906,444.767,5.14015
907,444.94,5.14011
908,445.115,5.14017
909,445.289,5.1402
910,445.464,5.1402
911,445.643,5.14019
912,445.802,5.14011
913,445.969,5.14003
914,446.138,5.13995
915,446.31,5.13982
916,446.476,5.1397
917,446.646,5.13962
918,446.816,5.13957
919,446.993,5.13956
920,447.171,5.13955
921,447.339,5.13953
922,447.507,5.13952
923,447.676,5.13946
924,447.843,5.13948
925,448.017,5.13948
926,448.19,5.13947
927,448.353,5.13947
928,448.53,5.13934
929,448.695,5.13923
930,448.87,5.13911
931,449.044,5.13895
932,449.216,5.13882
933,449.393,5.13872
934,449.557,5.13862
935,449.732,5.13852
936,449.898,5.13837
937,450.066,5.13824
938,450.242,5.13816
939,450.416,5.13807
940,450.586,5.13808
941,450.752,5.13809
942,450.919,5.13811
943,451.093,5.1381
944,451.264,5.13812
945,451.435,5.13808
946,451.603,5.13802
947,451.77,5.13796
948,451.948,5.13778
949,452.122,5.13768
950,452.292,5.1376
951,452.46,5.1375
952,452.622,5.13742
953,452.796,5.13736
954,452.964,5.13733
955,453.141,5.13731
956,453.312,5.1373
957,453.475,5.13731
958,453.647,5.13732
959,453.824,5.13731
960,453.991,5.13728
961,454.162,5.13721
962,454.334,5.13712
963,454.506,5.13703
964,454.671,5.13685
965,454.852,5.13675
966,455.014,5.13669
967,455.186,5.13666
968,455.361,5.13669
969,455.532,5.13668
970,455.698,5.13665
971,455.862,5.13663
972,456.035,5.1366
973,456.208,5.13658
974,456.38,5.13656
975,456.553,5.13651
976,456.724,5.13646
977,456.891,5.1363
978,457.065,5.13617
979,457.235,5.13604
980,457.407,5.13588
981,457.569,5.13577
982,457.743,5.13573
983,457.916,5.13575
984,458.086,5.13578
985,458.245,5.13581
986,458.415,5.13579
987,458.595,5.13576
988,458.765,5.13568
989,458.941,5.13562
