Time,Temperature,Mass
[s],[k],[mg]
8.67E-04,300.021,3.8808
0.004333333,300.13,3.8808
0.01266666,300.237,3.8808
0.021,300.347,3.8807
0.02933333,300.46,3.8806
0.03766667,300.575,3.8806
0.046,300.68,3.8806
0.05433334,300.786,3.8805
0.06266666,300.897,3.8805
0.071,301.006,3.8805
0.07933334,301.116,3.8804
0.08766666,301.228,3.8804
0.096,301.331,3.8803
0.1043333,301.445,3.8803
0.1126666,301.549,3.8802
0.121,301.661,3.8802
0.1293333,301.771,3.8801
0.1376667,301.879,3.8801
0.146,301.991,3.8801
0.1543334,302.096,3.8801
0.1626666,302.208,3.88
0.171,302.317,3.88
0.1793333,302.426,3.8799
0.1876666,302.531,3.8799
0.196,302.639,3.8799
0.2043333,302.749,3.8798
0.2126666,302.855,3.8798
0.221,302.963,3.8798
0.2293333,303.075,3.8797
0.2376666,303.181,3.8796
0.246,303.289,3.8796
0.2543334,303.402,3.8796
0.2626667,303.514,3.8796
0.271,303.622,3.8796
0.2793333,303.725,3.8795
0.2876667,303.836,3.8795
0.296,303.945,3.8794
0.3043333,304.054,3.8794
0.3126666,304.159,3.8794
0.321,304.267,3.8794
0.3293334,304.372,3.8793
0.3376666,304.482,3.8793
0.346,304.594,3.8793
0.3543334,304.696,3.8792
0.3626666,304.808,3.8792
0.371,304.91,3.8792
0.3793334,305.017,3.8791
0.3876666,305.126,3.8791
0.396,305.231,3.8791
0.4043333,305.336,3.8791
0.4126667,305.441,3.8791
0.421,305.544,3.879
0.4293333,305.645,3.879
0.4376666,305.754,3.879
0.446,305.862,3.879
0.4543334,305.961,3.8789
0.4626666,306.065,3.8789
0.471,306.164,3.8788
0.4793334,306.279,3.8788
0.4876666,306.388,3.8788
0.496,306.484,3.8788
0.5043333,306.583,3.8787
0.5126667,306.687,3.8787
0.521,306.795,3.8787
0.5293334,306.901,3.8787
0.5376668,307,3.8787
0.546,307.107,3.8787
0.5543332,307.207,3.8786
0.5626668,307.312,3.8786
0.571,307.412,3.8786
0.5793332,307.514,3.8786
0.5876668,307.612,3.8785
0.596,307.719,3.8785
0.6043334,307.819,3.8785
0.6126668,307.922,3.8785
0.621,308.028,3.8784
0.6293332,308.119,3.8784
0.6376668,308.224,3.8784
0.646,308.325,3.8784
0.6543334,308.424,3.8783
0.6626668,308.521,3.8783
0.671,308.622,3.8783
0.6793334,308.72,3.8783
0.6876666,308.821,3.8783
0.696,308.922,3.8782
0.7043334,309.027,3.8782
0.7126668,309.118,3.8782
0.721,309.211,3.8782
0.7293334,309.313,3.8782
0.7376666,309.407,3.8782
0.746,309.506,3.8782
0.7543334,309.606,3.8782
0.7626666,309.698,3.8782
0.771,309.798,3.8781
0.7793334,309.89,3.8781
0.7876668,309.987,3.8781
0.796,310.087,3.8781
0.8043334,310.186,3.878
0.8126668,310.29,3.878
0.821,310.38,3.878
0.8293334,310.476,3.878
0.8376668,310.574,3.8779
0.846,310.673,3.8779
0.8543334,310.765,3.8779
0.8626668,310.855,3.8779
0.871,310.954,3.8779
0.8793334,311.051,3.8779
0.8876666,311.142,3.8779
0.896,311.241,3.8779
0.9043334,311.328,3.8779
0.9126668,311.422,3.8778
0.921,311.518,3.8779
0.9293334,311.61,3.8779
0.9376668,311.704,3.8779
0.946,311.796,3.8779
0.9543334,311.895,3.8779
0.9626668,311.988,3.8779
0.971,312.079,3.8779
0.9793334,312.167,3.8779
0.9876668,312.259,3.8778
0.996,312.35,3.8779
1.004333,312.441,3.8779
1.012667,312.531,3.8779
1.021,312.623,3.8779
1.029333,312.717,3.8778
1.037667,312.804,3.8778
1.046,312.896,3.8778
1.054334,312.987,3.8778
1.062667,313.077,3.8778
1.071,313.17,3.8778
1.079334,313.258,3.8777
1.087666,313.346,3.8776
1.096,313.437,3.8776
1.104334,313.524,3.8776
1.112667,313.617,3.8776
1.121,313.702,3.8775
1.129334,313.793,3.8775
1.137667,313.878,3.8775
1.146,313.969,3.8775
1.154334,314.052,3.8775
1.162667,314.147,3.8775
1.171,314.236,3.8775
1.179334,314.32,3.8775
1.187667,314.407,3.8775
1.196,314.492,3.8775
1.204334,314.583,3.8775
1.212666,314.671,3.8775
1.221,314.755,3.8775
1.229334,314.84,3.8775
1.237667,314.924,3.8775
1.246,315.011,3.8775
1.254334,315.103,3.8775
1.262667,315.189,3.8774
1.271,315.278,3.8774
1.279334,315.364,3.8774
1.287666,315.449,3.8774
1.296,315.534,3.8774
1.304334,315.618,3.8774
1.312666,315.697,3.8774
1.321,315.779,3.8774
1.329334,315.862,3.8773
1.337666,315.947,3.8773
1.346,316.033,3.8773
1.354334,316.115,3.8773
1.362666,316.203,3.8773
1.371,316.285,3.8773
1.379334,316.371,3.8773
1.387666,316.457,3.8773
1.396,316.536,3.8773
1.404334,316.617,3.8773
1.412666,316.707,3.8773
1.421,316.787,3.8773
1.429334,316.877,3.8773
1.437666,316.959,3.8773
1.446,317.036,3.8773
1.454334,317.125,3.8773
1.462666,317.207,3.8772
1.471,317.287,3.8772
1.479334,317.373,3.8772
1.487666,317.456,3.8772
1.496,317.532,3.8772
1.504334,317.619,3.8772
1.512666,317.702,3.8772
1.521,317.78,3.8771
1.529334,317.865,3.8771
1.537666,317.952,3.8772
1.546,318.034,3.8772
1.554334,318.107,3.8772
1.562666,318.186,3.8772
1.571,318.273,3.8771
1.579334,318.355,3.8771
1.587666,318.431,3.8771
1.596,318.519,3.8771
1.604334,318.599,3.8771
1.612666,318.68,3.8771
1.621,318.758,3.877
1.629334,318.842,3.877
1.637666,318.92,3.877
1.646,319.004,3.8769
1.654334,319.089,3.8769
1.662666,319.167,3.8769
1.671,319.242,3.8769
1.679334,319.324,3.8769
1.687666,319.407,3.8769
1.696,319.49,3.8769
1.704334,319.57,3.8769
1.712666,319.647,3.8769
1.721,319.732,3.8769
1.729334,319.807,3.8769
1.737666,319.888,3.8769
1.746,319.976,3.8768
1.754334,320.047,3.8768
1.762666,320.129,3.8768
1.771,320.212,3.8768
1.779334,320.291,3.8768
1.787666,320.371,3.8767
1.796,320.453,3.8768
1.804334,320.527,3.8768
1.812666,320.609,3.8767
1.821,320.692,3.8767
1.829334,320.774,3.8768
1.837666,320.853,3.8768
1.846,320.93,3.8768
1.854334,321.012,3.8767
1.862666,321.088,3.8767
1.871,321.169,3.8767
1.879334,321.246,3.8767
1.887666,321.325,3.8767
1.896,321.41,3.8767
1.904334,321.483,3.8767
1.912666,321.568,3.8767
1.921,321.645,3.8766
1.929334,321.725,3.8766
1.937666,321.803,3.8766
1.946,321.882,3.8766
1.954334,321.959,3.8766
1.962666,322.041,3.8766
1.971,322.128,3.8766
1.979334,322.209,3.8766
1.987666,322.281,3.8766
1.996,322.357,3.8766
2.004334,322.433,3.8766
2.012666,322.52,3.8766
2.021,322.601,3.8766
2.029334,322.675,3.8766
2.037666,322.758,3.8765
2.046,322.834,3.8765
2.054334,322.911,3.8765
2.062666,322.992,3.8765
2.071,323.072,3.8765
2.079333,323.153,3.8765
2.087666,323.225,3.8764
2.096,323.307,3.8764
2.104334,323.388,3.8765
2.112666,323.465,3.8765
2.121,323.549,3.8764
2.129333,323.628,3.8764
2.137666,323.703,3.8764
2.146,323.785,3.8764
2.154333,323.866,3.8764
2.162666,323.944,3.8763
2.171,324.023,3.8763
2.179334,324.105,3.8763
2.187666,324.183,3.8763
2.196,324.265,3.8763
2.204333,324.342,3.8762
2.212666,324.419,3.8762
2.221,324.495,3.8762
2.229334,324.584,3.8762
2.237666,324.666,3.8762
2.246,324.745,3.8762
2.254333,324.823,3.8762
2.262666,324.902,3.8762
2.271,324.983,3.8762
2.279333,325.062,3.8762
2.287666,325.149,3.8762
2.296,325.223,3.8762
2.304334,325.302,3.8762
2.312666,325.382,3.8762
2.321,325.467,3.8761
2.329333,325.548,3.8761
2.337666,325.623,3.8761
2.346,325.7,3.8761
2.354334,325.781,3.8761
2.362666,325.86,3.8761
2.371,325.941,3.8761
2.379333,326.019,3.8761
2.387666,326.105,3.8761
2.396,326.182,3.8761
2.404333,326.262,3.8761
2.412666,326.346,3.876
2.421,326.432,3.876
2.429334,326.51,3.8759
2.437666,326.591,3.8759
2.446,326.668,3.8759
2.454333,326.745,3.8759
2.462666,326.832,3.8759
2.471,326.917,3.8759
2.479334,326.992,3.876
2.487666,327.071,3.876
2.496,327.155,3.876
2.504333,327.237,3.876
2.512666,327.315,3.876
2.521,327.397,3.8759
2.529333,327.477,3.8759
2.537666,327.564,3.8759
2.546,327.646,3.8758
2.554334,327.725,3.8758
2.562666,327.808,3.8758
2.571,327.885,3.8758
2.579333,327.965,3.8757
2.587666,328.052,3.8757
2.596,328.131,3.8757
2.604334,328.22,3.8757
2.612666,328.299,3.8757
2.621,328.377,3.8757
2.629333,328.463,3.8757
2.637666,328.548,3.8756
2.646,328.627,3.8756
2.654333,328.707,3.8756
2.662666,328.788,3.8756
2.671,328.873,3.8756
2.679334,328.955,3.8756
2.687666,329.036,3.8756
2.696,329.118,3.8756
2.704333,329.198,3.8756
2.712666,329.281,3.8756
2.721,329.365,3.8756
2.729334,329.449,3.8756
2.737666,329.532,3.8756
2.746,329.612,3.8756
2.754333,329.696,3.8756
2.762666,329.779,3.8756
2.771,329.865,3.8756
2.779333,329.94,3.8756
2.787666,330.032,3.8755
2.796,330.109,3.8755
2.804334,330.192,3.8755
2.812666,330.274,3.8755
2.821,330.361,3.8755
2.829333,330.441,3.8755
2.837666,330.522,3.8755
2.846,330.603,3.8754
2.854334,330.691,3.8754
2.862666,330.775,3.8754
2.871,330.851,3.8754
2.879333,330.933,3.8754
2.887666,331.019,3.8753
2.896,331.104,3.8753
2.904333,331.186,3.8753
2.912666,331.27,3.8754
2.921,331.35,3.8754
2.929334,331.436,3.8754
2.937666,331.514,3.8754
2.946,331.602,3.8754
2.954333,331.681,3.8754
2.962666,331.767,3.8753
2.971,331.857,3.8753
2.979334,331.942,3.8753
2.987666,332.023,3.8753
2.996,332.105,3.8753
3.004333,332.192,3.8752
3.012666,332.276,3.8752
3.021,332.365,3.8752
3.029333,332.45,3.8752
3.037666,332.531,3.8752
3.046,332.616,3.8752
3.054334,332.706,3.8752
3.062666,332.786,3.8752
3.071,332.871,3.8752
3.079333,332.958,3.8752
3.087666,333.043,3.8751
3.096,333.127,3.8751
3.104334,333.215,3.8751
3.112666,333.296,3.8751
3.121,333.383,3.8751
3.129333,333.465,3.8751
3.137666,333.55,3.8751
3.146,333.644,3.8751
3.154333,333.726,3.8751
3.162666,333.81,3.8751
3.171,333.891,3.8751
3.179334,333.978,3.8751
3.187666,334.067,3.8751
3.196,334.152,3.8751
3.204334,334.238,3.8751
3.212666,334.321,3.875
3.221,334.404,3.875
3.229334,334.488,3.875
3.237666,334.573,3.875
3.246,334.657,3.875
3.254333,334.747,3.875
3.262666,334.831,3.875
3.271,334.92,3.875
3.279334,335.001,3.8749
3.287666,335.087,3.8749
3.296,335.177,3.8749
3.304334,335.266,3.8749
3.312666,335.348,3.8749
3.321,335.436,3.8749
3.329334,335.522,3.8749
3.337666,335.61,3.8749
3.346,335.697,3.8749
3.354334,335.787,3.8748
3.362666,335.869,3.8749
3.371,335.956,3.8749
3.379333,336.038,3.8749
3.387666,336.124,3.8749
3.396,336.208,3.8749
3.404334,336.3,3.8749
3.412666,336.389,3.8748
3.421,336.473,3.8749
3.429334,336.556,3.8748
3.437666,336.646,3.8748
3.446,336.731,3.8748
3.454334,336.82,3.8748
3.462666,336.901,3.8747
3.471,336.989,3.8747
3.479334,337.077,3.8747
3.487666,337.162,3.8747
3.496,337.248,3.8747
3.504333,337.332,3.8747
3.512666,337.427,3.8747
3.521,337.513,3.8747
3.529334,337.6,3.8747
3.537666,337.69,3.8747
3.546,337.775,3.8747
3.554334,337.862,3.8747
3.562666,337.948,3.8747
3.571,338.035,3.8747
3.579334,338.126,3.8747
3.587666,338.213,3.8747
3.596,338.299,3.8747
3.604334,338.383,3.8747
3.612666,338.472,3.8747
3.621,338.564,3.8747
3.629333,338.651,3.8747
3.637666,338.735,3.8746
3.646,338.824,3.8746
3.654334,338.91,3.8746
3.662666,339,3.8746
3.671,339.086,3.8746
3.679334,339.176,3.8746
3.687666,339.26,3.8746
3.696,339.349,3.8746
3.704334,339.439,3.8746
3.712666,339.527,3.8746
3.721,339.615,3.8745
3.729334,339.699,3.8745
3.737666,339.79,3.8745
3.746,339.872,3.8745
3.754333,339.964,3.8745
3.762666,340.05,3.8745
3.771,340.14,3.8745
3.779334,340.22,3.8745
3.787666,340.312,3.8745
3.796,340.4,3.8745
3.804334,340.486,3.8745
3.812666,340.576,3.8745
3.821,340.665,3.8745
3.829334,340.75,3.8745
3.837666,340.844,3.8744
3.846,340.929,3.8744
3.854334,341.017,3.8744
3.862666,341.101,3.8744
3.871,341.19,3.8744
3.879333,341.278,3.8745
3.887666,341.367,3.8744
3.896,341.455,3.8744
3.904334,341.542,3.8744
3.912666,341.631,3.8744
3.921,341.723,3.8744
3.929334,341.811,3.8744
3.937666,341.895,3.8744
3.946,341.984,3.8744
3.954334,342.075,3.8744
3.962666,342.159,3.8743
3.971,342.252,3.8744
3.979334,342.334,3.8744
3.987666,342.422,3.8744
3.996,342.509,3.8744
4.004334,342.599,3.8744
4.012666,342.686,3.8744
4.021,342.778,3.8744
4.029333,342.859,3.8744
4.037666,342.949,3.8745
4.046,343.036,3.8745
4.054333,343.126,3.8745
4.062667,343.208,3.8744
4.071,343.299,3.8744
4.079334,343.383,3.8744
4.087666,343.475,3.8744
4.096,343.557,3.8744
4.104334,343.645,3.8744
4.112666,343.739,3.8744
4.121,343.823,3.8744
4.129334,343.91,3.8744
4.137666,343.999,3.8745
4.146,344.084,3.8745
4.154333,344.175,3.8745
4.162666,344.261,3.8745
4.171,344.349,3.8745
4.179333,344.433,3.8745
4.187667,344.524,3.8745
4.196,344.615,3.8745
4.204334,344.704,3.8745
4.212666,344.788,3.8745
4.221,344.88,3.8744
4.229334,344.964,3.8744
4.237666,345.056,3.8744
4.246,345.141,3.8744
4.254334,345.228,3.8744
4.262666,345.317,3.8744
4.271,345.398,3.8744
4.279333,345.488,3.8743
4.287666,345.577,3.8743
4.296,345.667,3.8743
4.304333,345.752,3.8744
4.312667,345.842,3.8744
4.321,345.927,3.8744
4.329334,346.013,3.8744
4.337666,346.101,3.8743
4.346,346.187,3.8743
4.354334,346.275,3.8743
4.362666,346.365,3.8744
4.371,346.454,3.8744
4.379334,346.541,3.8743
4.387666,346.623,3.8743
4.396,346.713,3.8742
4.404333,346.799,3.8743
4.412666,346.89,3.8742
4.421,346.979,3.8742
4.429333,347.063,3.8742
4.437667,347.149,3.8742
4.446,347.24,3.8742
4.454334,347.319,3.8742
4.462666,347.408,3.8743
4.471,347.504,3.8743
4.479334,347.592,3.8743
4.487666,347.673,3.8743
4.496,347.763,3.8743
4.504334,347.848,3.8743
4.512666,347.934,3.8743
4.521,348.022,3.8743
4.529333,348.112,3.8743
4.537666,348.193,3.8743
4.546,348.277,3.8742
4.554333,348.369,3.8742
4.562667,348.457,3.8742
4.571,348.544,3.8742
4.579334,348.633,3.8742
4.587666,348.716,3.8742
4.596,348.802,3.8742
4.604334,348.897,3.8742
4.612666,348.985,3.8742
4.621,349.071,3.8742
4.629334,349.158,3.8742
4.637666,349.244,3.8742
4.646,349.332,3.8742
4.654333,349.419,3.8742
4.662666,349.502,3.8741
4.671,349.587,3.8742
4.679333,349.675,3.8742
4.687667,349.759,3.8742
4.696,349.851,3.8742
4.704334,349.934,3.8742
4.712666,350.021,3.8742
4.721,350.109,3.8742
4.729334,350.198,3.8742
4.737666,350.283,3.8742
4.746,350.367,3.8742
4.754334,350.451,3.8742
4.762666,350.535,3.8742
4.771,350.626,3.8742
4.779333,350.71,3.8742
4.787666,350.796,3.8742
4.796,350.878,3.8742
4.804333,350.968,3.8742
4.812667,351.048,3.8742
4.821,351.132,3.8742
4.829334,351.223,3.8742
4.837666,351.312,3.8742
4.846,351.394,3.8742
4.854334,351.485,3.8742
4.862666,351.562,3.8743
4.871,351.653,3.8743
4.879334,351.74,3.8743
4.887666,351.82,3.8743
4.896,351.913,3.8743
4.904333,352,3.8743
4.912666,352.084,3.8743
4.921,352.166,3.8743
4.929333,352.254,3.8743
4.937667,352.346,3.8743
4.946,352.429,3.8742
4.954334,352.512,3.8742
4.962666,352.593,3.8742
4.971,352.684,3.8742
4.979334,352.767,3.8742
4.987666,352.859,3.8742
4.996,352.944,3.8742
5.004334,353.032,3.8742
5.012666,353.117,3.8742
5.021,353.204,3.8742
5.029333,353.289,3.8741
5.037666,353.379,3.8741
5.046,353.463,3.8742
5.054333,353.548,3.8742
5.062667,353.631,3.8742
5.071,353.717,3.8742
5.079334,353.799,3.8742
5.087666,353.884,3.8742
5.096,353.969,3.8742
5.104334,354.055,3.8742
5.112666,354.139,3.8742
5.121,354.229,3.8742
5.129334,354.315,3.8742
5.137666,354.402,3.8742
5.146,354.486,3.8742
5.154333,354.572,3.8741
5.162666,354.66,3.8741
5.171,354.745,3.8741
5.179333,354.827,3.8741
5.187667,354.909,3.8741
5.196,354.992,3.8741
5.204334,355.084,3.8741
5.212666,355.164,3.8741
5.221,355.249,3.8742
5.229334,355.335,3.8742
5.237666,355.42,3.8742
5.246,355.51,3.8742
5.254334,355.588,3.8741
5.262666,355.672,3.8741
5.271,355.756,3.8742
5.279332,355.845,3.8741
5.287666,355.929,3.8741
5.296,356.015,3.8742
5.304332,356.097,3.8741
5.312668,356.182,3.8741
5.321,356.27,3.8741
5.329334,356.357,3.8742
5.337666,356.437,3.8742
5.346,356.524,3.8742
5.354334,356.609,3.8742
5.362666,356.695,3.8742
5.371,356.779,3.8742
5.379334,356.865,3.8742
5.387666,356.951,3.8742
5.396,357.037,3.8742
5.404332,357.115,3.8742
5.412666,357.204,3.8742
5.421,357.283,3.8742
5.429332,357.375,3.8742
5.437668,357.456,3.8742
5.446,357.536,3.8742
5.454334,357.62,3.8742
5.462666,357.706,3.8742
5.471,357.793,3.8742
5.479334,357.879,3.8742
5.487666,357.966,3.8742
5.496,358.047,3.8742
5.504334,358.133,3.8742
5.512666,358.219,3.8742
5.521,358.304,3.8742
5.529332,358.389,3.8742
5.537666,358.478,3.8741
5.546,358.57,3.8741
5.554332,358.647,3.8741
5.562668,358.729,3.8741
5.571,358.812,3.8741
5.579334,358.898,3.8741
5.587666,358.982,3.8741
5.596,359.065,3.8741
5.604334,359.15,3.8741
5.612666,359.235,3.8742
5.621,359.321,3.8742
5.629334,359.406,3.8742
5.637666,359.493,3.8741
5.646,359.577,3.8741
5.654332,359.657,3.8741
5.662666,359.738,3.8741
5.671,359.824,3.8741
5.679332,359.914,3.8741
5.687668,359.993,3.8741
5.696,360.077,3.8741
5.704334,360.163,3.8741
5.712666,360.248,3.8741
5.721,360.334,3.8741
5.729334,360.42,3.8741
5.737666,360.505,3.8741
5.746,360.59,3.8742
5.754334,360.672,3.8742
5.762666,360.761,3.8742
5.771,360.839,3.8742
5.779332,360.924,3.8742
5.787666,361.005,3.8743
5.796,361.092,3.8743
5.804332,361.181,3.8743
5.812668,361.263,3.8743
5.821,361.349,3.8744
5.829334,361.435,3.8744
5.837666,361.517,3.8744
5.846,361.601,3.8744
5.854334,361.683,3.8745
5.862666,361.769,3.8744
5.871,361.855,3.8744
5.879334,361.938,3.8744
5.887666,362.023,3.8744
5.896,362.106,3.8744
5.904332,362.187,3.8745
5.912666,362.275,3.8745
5.921,362.36,3.8745
5.929332,362.442,3.8745
5.937668,362.526,3.8744
5.946,362.61,3.8745
5.954334,362.693,3.8745
5.962666,362.778,3.8745
5.971,362.862,3.8745
5.979334,362.94,3.8745
5.987666,363.026,3.8745
5.996,363.114,3.8745
6.004334,363.197,3.8745
6.012666,363.283,3.8745
6.021,363.369,3.8745
6.029332,363.454,3.8745
6.037666,363.539,3.8745
6.046,363.622,3.8744
6.054332,363.705,3.8744
6.062668,363.792,3.8744
6.071,363.876,3.8744
6.079334,363.957,3.8744
6.087666,364.041,3.8744
6.096,364.125,3.8744
6.104334,364.208,3.8744
6.112666,364.295,3.8745
6.121,364.384,3.8745
6.129334,364.465,3.8745
6.137666,364.547,3.8745
6.146,364.634,3.8745
6.154332,364.719,3.8744
6.162666,364.803,3.8745
6.171,364.892,3.8744
6.179332,364.973,3.8745
6.187668,365.055,3.8745
6.196,365.137,3.8744
6.204334,365.224,3.8744
6.212666,365.311,3.8744
6.221,365.398,3.8744
6.229334,365.478,3.8744
6.237666,365.565,3.8745
6.246,365.651,3.8744
6.254334,365.734,3.8744
6.262666,365.821,3.8744
6.271,365.906,3.8744
6.279332,365.987,3.8744
6.287666,366.074,3.8745
6.296,366.163,3.8745
6.304332,366.246,3.8745
6.312668,366.334,3.8745
6.321,366.414,3.8745
6.329334,366.494,3.8745
6.337666,366.582,3.8745
6.346,366.671,3.8745
6.354334,366.754,3.8745
6.362666,366.837,3.8745
6.371,366.916,3.8745
6.379334,367.005,3.8745
6.387666,367.089,3.8745
6.396,367.173,3.8745
6.404334,367.262,3.8745
6.412668,367.337,3.8745
6.421,367.429,3.8745
6.429334,367.509,3.8745
6.437668,367.598,3.8745
6.446,367.678,3.8745
6.454334,367.765,3.8745
6.462666,367.846,3.8745
6.471,367.933,3.8745
6.479334,368.014,3.8745
6.487666,368.102,3.8745
6.496,368.184,3.8745
6.504334,368.274,3.8745
6.512666,368.36,3.8745
6.521,368.443,3.8745
6.529334,368.525,3.8746
6.537668,368.61,3.8745
6.546,368.69,3.8745
6.554334,368.777,3.8745
6.562668,368.859,3.8745
6.571,368.941,3.8745
6.579334,369.025,3.8745
6.587666,369.114,3.8745
6.596,369.195,3.8745
6.604334,369.271,3.8744
6.612666,369.362,3.8744
6.621,369.444,3.8745
6.629334,369.53,3.8745
6.637666,369.611,3.8745
6.646,369.698,3.8745
6.654334,369.781,3.8745
6.662668,369.862,3.8745
6.671,369.947,3.8745
6.679334,370.034,3.8746
6.687668,370.121,3.8746
6.696,370.206,3.8746
6.704334,370.296,3.8746
6.712666,370.38,3.8746
6.721,370.455,3.8746
6.729334,370.537,3.8746
6.737666,370.624,3.8746
6.746,370.713,3.8746
6.754334,370.8,3.8746
6.762666,370.883,3.8745
6.771,370.965,3.8745
6.779334,371.05,3.8745
6.787668,371.137,3.8744
6.796,371.229,3.8744
6.804334,371.308,3.8745
6.812668,371.39,3.8745
6.821,371.474,3.8745
6.829334,371.56,3.8745
6.837666,371.644,3.8745
6.846,371.723,3.8745
6.854334,371.808,3.8746
6.862666,371.895,3.8746
6.871,371.982,3.8746
6.879334,372.067,3.8746
6.887666,372.151,3.8745
6.896,372.236,3.8745
6.904334,372.317,3.8745
6.912668,372.402,3.8745
6.921,372.483,3.8745
6.929334,372.565,3.8745
6.937668,372.65,3.8745
6.946,372.737,3.8745
6.954334,372.821,3.8744
6.962666,372.904,3.8744
6.971,372.991,3.8745
6.979334,373.072,3.8745
6.987666,373.156,3.8744
6.996,373.247,3.8744
7.004334,373.334,3.8744
7.012666,373.411,3.8744
7.021,373.508,3.8745
7.029334,373.589,3.8745
7.037668,373.669,3.8745
7.046,373.754,3.8745
7.054334,373.838,3.8745
7.062668,373.923,3.8744
7.071,374.014,3.8744
7.079334,374.099,3.8744
7.087666,374.178,3.8744
7.096,374.262,3.8744
7.104334,374.348,3.8744
7.112666,374.434,3.8744
7.121,374.521,3.8744
7.129334,374.601,3.8744
7.137666,374.69,3.8744
7.146,374.778,3.8744
7.154334,374.858,3.8744
7.162668,374.944,3.8744
7.171,375.029,3.8744
7.179334,375.115,3.8744
7.187668,375.204,3.8744
7.196,375.285,3.8744
7.204334,375.366,3.8744
7.212666,375.455,3.8744
7.221,375.541,3.8744
7.229334,375.625,3.8744
