Time,Temperature,Heat Flow
[s],[k],[W/g]
0.24,300.03,4.53668616
0.26,300.08,4.571744639
0.76,300.137,4.607422027
1.26,300.191,4.643196881
1.76,300.248,4.679322612
2.26,300.305,4.715823587
2.76,300.362,4.7528923
3.26,300.417,4.790506823
3.76,300.472,4.828769493
4.26,300.539,4.867022417
4.76,300.599,4.905706628
5.26,300.659,4.944702729
5.76,300.722,4.984086257
6.26,300.781,5.023791423
6.76,300.842,5.064093567
7.26,300.907,5.105073099
7.76,300.978,5.145397173
8.26,301.047,5.180960039
8.76,301.115,5.212453704
9.26,301.179,5.241028265
9.76,301.246,5.266710526
10.26,301.319,5.288572125
10.76,301.385,5.307655945
11.26,301.455,5.323457602
11.76,301.529,5.335321637
12.26,301.602,5.343654971
12.76,301.669,5.350155945
13.26,301.747,5.353460039
13.76,301.816,5.357336745
14.26,301.888,5.361354776
14.76,301.972,5.363633041
15.26,302.04,5.367270955
15.76,302.117,5.370338694
16.26,302.193,5.373645224
16.76,302.27,5.376710526
17.26,302.347,5.379839181
17.76,302.423,5.382836257
18.26,302.499,5.386544834
18.76,302.584,5.389400585
19.26,302.664,5.392344055
19.76,302.749,5.395263158
20.26,302.826,5.398913255
20.76,302.901,5.402612086
21.26,302.984,5.405677388
21.76,303.072,5.408367446
22.26,303.152,5.411496101
22.76,303.242,5.413654971
23.26,303.325,5.415960039
23.76,303.413,5.417894737
24.26,303.498,5.420462963
24.76,303.579,5.42373538
25.26,303.663,5.426730019
25.76,303.754,5.428416179
26.26,303.837,5.430823587
26.76,303.93,5.432694932
27.26,304.021,5.434887914
27.76,304.114,5.436807992
28.26,304.202,5.439254386
28.76,304.294,5.44119152
29.26,304.384,5.443011696
29.76,304.473,5.444766082
30.26,304.563,5.446013645
30.76,304.662,5.447480507
31.26,304.753,5.449446881
31.76,304.848,5.450755361
32.26,304.948,5.451739766
32.76,305.038,5.453301657
33.26,305.127,5.455197368
33.76,305.223,5.457105263
34.26,305.323,5.458031189
34.76,305.413,5.459366472
35.26,305.508,5.461055068
35.76,305.606,5.462146686
36.26,305.7,5.463347953
36.76,305.798,5.464595517
37.26,305.896,5.465740741
37.76,305.992,5.467280702
38.26,306.093,5.468006823
38.76,306.191,5.468333333
39.26,306.289,5.469493177
39.76,306.384,5.470808967
40.26,306.484,5.471469298
40.76,306.591,5.471525341
41.26,306.688,5.472229532
41.76,306.785,5.47288499
42.26,306.886,5.473403996
42.76,306.989,5.473650097
43.26,307.087,5.474115497
43.76,307.191,5.474356725
44.26,307.294,5.474446881
44.76,307.395,5.474576023
45.26,307.499,5.474444444
45.76,307.602,5.474349415
46.26,307.708,5.47420809
46.76,307.808,5.474083821
47.26,307.905,5.474303119
47.76,308.017,5.473347953
48.26,308.117,5.473469786
48.76,308.217,5.473374756
49.26,308.325,5.472631579
49.76,308.435,5.471483918
50.26,308.536,5.471081871
50.76,308.644,5.46996345
51.26,308.744,5.469247076
51.76,308.849,5.468401559
52.26,308.955,5.466932261
52.76,309.057,5.466164717
53.26,309.164,5.46499269
53.76,309.266,5.464351852
54.26,309.374,5.463201754
54.76,309.48,5.462429337
55.26,309.584,5.461552144
55.76,309.696,5.460046296
56.26,309.799,5.459500487
56.76,309.901,5.458879142
57.26,310.006,5.458082359
57.76,310.111,5.456878655
58.26,310.218,5.455562865
58.76,310.324,5.454110624
59.26,310.429,5.45295809
59.76,310.538,5.451922515
60.26,310.636,5.451539961
60.76,310.741,5.450684698
61.26,310.849,5.449325049
61.76,310.958,5.447729045
62.26,311.066,5.445884503
62.76,311.172,5.4442154
63.26,311.274,5.442765595
63.76,311.381,5.440877193
64.26,311.489,5.438569688
64.76,311.595,5.435935673
65.26,311.703,5.433121345
65.76,311.81,5.430382554
66.26,311.917,5.427592593
66.76,312.028,5.424385965
67.26,312.134,5.421398635
67.76,312.241,5.418491715
68.26,312.343,5.415996589
68.76,312.449,5.413143275
69.26,312.556,5.41004386
69.76,312.666,5.406761696
70.26,312.768,5.403898635
70.76,312.874,5.400740741
71.26,312.981,5.397519493
71.76,313.081,5.394892788
72.26,313.193,5.391325536
72.76,313.294,5.38871345
73.26,313.4,5.385182749
73.76,313.509,5.381179337
74.26,313.618,5.377105263
74.76,313.722,5.373552632
75.26,313.829,5.36955653
75.76,313.937,5.365085283
76.26,314.037,5.361184211
76.76,314.144,5.356810429
77.26,314.247,5.352760721
77.76,314.358,5.34750731
78.26,314.465,5.342585283
78.76,314.564,5.338114035
79.26,314.669,5.33369883
79.76,314.777,5.328679337
80.26,314.885,5.323153021
80.76,314.985,5.318596491
81.26,315.088,5.313708577
81.76,315.192,5.308433236
82.26,315.299,5.302782651
82.76,315.403,5.297383041
83.26,315.508,5.291725146
83.76,315.613,5.285921053
84.26,315.717,5.279683236
84.76,315.811,5.274671053
85.26,315.917,5.269147173
85.76,316.022,5.263248051
86.26,316.127,5.256988304
86.76,316.224,5.251578947
87.26,316.323,5.246016082
87.76,316.427,5.240109649
88.26,316.531,5.234473684
88.76,316.632,5.228903509
89.26,316.731,5.223630604
89.76,316.835,5.217309942
90.26,316.936,5.211318226
90.76,317.04,5.204722222
91.26,317.139,5.198528265
91.76,317.241,5.19212232
92.26,317.345,5.185324074
92.76,317.441,5.178918129
93.26,317.541,5.171876218
93.76,317.637,5.16545809
94.26,317.742,5.157889864
94.76,317.85,5.15001462
95.26,317.948,5.142651072
95.76,318.045,5.135575049
96.26,318.148,5.127948343
96.76,318.244,5.120640838
97.26,318.342,5.113206628
97.76,318.443,5.105350877
98.26,318.538,5.097992203
98.76,318.637,5.090170565
99.26,318.737,5.082163743
99.76,318.831,5.074819688
100.26,318.936,5.066218324
100.76,319.033,5.058182261
101.26,319.129,5.050511696
101.76,319.227,5.042553606
102.26,319.323,5.034459064
102.76,319.418,5.026474172
103.26,319.517,5.018031189
103.76,319.612,5.009848928
104.26,319.713,5.001038012
104.76,319.807,4.992592593
105.26,319.896,4.984707602
105.76,319.996,4.976086745
106.26,320.096,4.966773879
106.76,320.185,4.95832846
107.26,320.286,4.949212963
107.76,320.383,4.940126706
108.26,320.476,4.931062378
108.76,320.572,4.921710526
109.26,320.667,4.912475634
109.76,320.763,4.903148148
110.26,320.86,4.893221248
110.76,320.957,4.88295078
111.26,321.049,4.873226121
111.76,321.141,4.86336501
112.26,321.236,4.852962963
112.76,321.325,4.843006823
113.26,321.422,4.832538986
113.76,321.516,4.821778752
114.26,321.607,4.811164717
114.76,321.703,4.800350877
115.26,321.788,4.790618908
115.76,321.884,4.780112086
116.26,321.98,4.769524854
116.76,322.073,4.758879142
117.26,322.168,4.748055556
117.76,322.256,4.737597466
118.26,322.345,4.727000487
118.76,322.44,4.716115984
119.26,322.531,4.705431287
119.76,322.618,4.694727096
120.26,322.708,4.683635478
120.76,322.799,4.672612086
121.26,322.892,4.661164717
121.76,322.983,4.6496077
122.26,323.072,4.63834308
122.76,323.167,4.626576511
123.26,323.253,4.615350877
123.76,323.34,4.60416423
124.26,323.425,4.592919103
124.76,323.521,4.581089181
125.26,323.608,4.569678363
125.76,323.698,4.557794834
126.26,323.784,4.546425439
126.76,323.87,4.535324074
127.26,323.953,4.524410331
127.76,324.047,4.512392788
128.26,324.135,4.500757797
128.76,324.218,4.48957115
129.26,324.311,4.477626706
129.76,324.401,4.465480019
130.26,324.488,4.453767057
130.76,324.576,4.44172271
131.26,324.66,4.429797758
131.76,324.751,4.417380604
132.26,324.838,4.405012183
132.76,324.928,4.392495127
133.26,325.009,4.380716374
133.76,325.099,4.367931287
134.26,325.185,4.355204678
134.76,325.268,4.34291423
135.26,325.349,4.330692008
135.76,325.439,4.318157895
136.26,325.525,4.30579922
136.76,325.61,4.293082359
137.26,325.695,4.280333821
137.76,325.774,4.268479532
138.26,325.86,4.255855263
138.76,325.946,4.243218811
139.26,326.03,4.230969786
139.76,326.117,4.218289474
140.26,326.206,4.205121832
140.76,326.285,4.192599903
141.26,326.371,4.179471248
141.76,326.456,4.16672271
142.26,326.538,4.1542154
142.76,326.628,4.140721248
143.26,326.706,4.127860624
143.76,326.786,4.114931774
144.26,326.878,4.101098928
144.76,326.953,4.088209064
145.26,327.037,4.075085283
145.76,327.121,4.061893275
146.26,327.204,4.048545322
146.76,327.281,4.035423977
147.26,327.368,4.021917641
147.76,327.452,4.008745127
148.26,327.538,3.995275341
148.76,327.614,3.982334308
149.26,327.691,3.969490741
149.76,327.775,3.95623538
150.26,327.861,3.942702242
150.76,327.938,3.92957115
151.26,328.024,3.916306043
151.76,328.107,3.902853314
152.26,328.191,3.888966862
152.76,328.272,3.875017057
153.26,328.357,3.860984405
153.76,328.435,3.84707115
154.26,328.517,3.833148148
154.76,328.602,3.81872076
155.26,328.677,3.805141326
155.76,328.76,3.791006335
156.26,328.84,3.776939571
156.76,328.92,3.7629654
157.26,329.002,3.748957115
157.76,329.081,3.735438596
158.26,329.16,3.721976121
158.76,329.237,3.709005848
159.26,329.321,3.69537037
159.76,329.401,3.682019981
160.26,329.485,3.668262671
160.76,329.566,3.654678363
161.26,329.648,3.641028265
161.76,329.726,3.62752924
162.26,329.802,3.614371345
162.76,329.889,3.600423977
163.26,329.963,3.587183236
163.76,330.05,3.573082359
164.26,330.129,3.559281189
164.76,330.213,3.545307018
165.26,330.296,3.531306043
165.76,330.373,3.517709552
166.26,330.453,3.504096004
166.76,330.528,3.490748051
167.26,330.609,3.476922515
167.76,330.689,3.46333577
168.26,330.763,3.45
168.76,330.845,3.436274366
169.26,330.93,3.42255117
169.76,331.004,3.409522417
170.26,331.087,3.396094055
170.76,331.167,3.382731481
171.26,331.251,3.36910575
171.76,331.327,3.355862573
172.26,331.404,3.342629142
172.76,331.484,3.329346979
173.26,331.56,3.316254873
173.76,331.642,3.302880117
174.26,331.719,3.289649123
174.76,331.798,3.276150097
175.26,331.883,3.262300195
175.76,331.956,3.248901072
176.26,332.04,3.235197368
176.76,332.115,3.222141813
177.26,332.194,3.208944932
177.76,332.279,3.195095029
178.26,332.358,3.181637427
178.76,332.434,3.168391813
179.26,332.512,3.155041423
179.76,332.588,3.14208577
180.26,332.668,3.128988791
180.76,332.753,3.115740741
181.26,332.827,3.103057992
181.76,332.908,3.090131579
182.26,332.991,3.077010234
182.76,333.064,3.064373782
183.26,333.14,3.051859162
183.76,333.219,3.039188596
184.26,333.294,3.026924951
184.76,333.376,3.01413499
185.26,333.456,3.001347466
185.76,333.535,2.988898635
186.26,333.613,2.976498538
186.76,333.695,2.963628168
187.26,333.775,2.950801657
187.76,333.852,2.938442982
188.26,333.929,2.925638402
188.76,334.007,2.91292885
189.26,334.086,2.900060916
189.76,334.161,2.887709552
190.26,334.25,2.874897661
190.76,334.322,2.862573099
191.26,334.405,2.849688109
191.76,334.483,2.8370346
192.26,334.566,2.824415205
192.76,334.642,2.811963938
193.26,334.711,2.800224172
193.76,334.795,2.787923977
194.26,334.875,2.775599415
194.76,334.949,2.763216374
195.26,335.037,2.750411793
195.76,335.11,2.73829922
196.26,335.189,2.726169591
196.76,335.268,2.714334795
197.26,335.344,2.702509747
197.76,335.424,2.690494639
198.26,335.505,2.678196881
198.76,335.586,2.66582846
199.26,335.669,2.653603801
199.76,335.746,2.641900585
200.26,335.824,2.630163255
200.76,335.901,2.618496589
201.26,335.982,2.606539961
201.76,336.058,2.594580897
202.26,336.136,2.582741228
202.76,336.221,2.570623782
203.26,336.307,2.558652534
203.76,336.385,2.546749513
204.26,336.462,2.534990253
204.76,336.537,2.523408869
205.26,336.619,2.511574074
205.76,336.696,2.499895224
206.26,336.777,2.488123782
206.76,336.858,2.476503411
207.26,336.939,2.464817251
207.76,337.02,2.453308967
208.26,337.1,2.441661793
208.76,337.175,2.430739035
209.26,337.255,2.419740741
209.76,337.333,2.40854922
210.26,337.422,2.397111842
210.76,337.497,2.386172027
211.26,337.583,2.374898148
211.76,337.664,2.364035331
212.26,337.736,2.353426413
212.76,337.82,2.34258577
213.26,337.898,2.331956628
213.76,337.981,2.320784357
214.26,338.062,2.309677875
214.76,338.139,2.299043616
215.26,338.221,2.288189815
215.76,338.301,2.277519737
216.26,338.387,2.266529727
216.76,338.466,2.255643762
217.26,338.541,2.245101852
217.76,338.622,2.234222953
218.26,338.702,2.223771686
218.76,338.782,2.213534113
219.26,338.863,2.203341618
219.76,338.94,2.193060916
220.26,339.017,2.182869396
220.76,339.101,2.172427388
221.26,339.182,2.16226462
221.76,339.259,2.152433723
222.26,339.34,2.14230117
222.76,339.426,2.13188499
223.26,339.504,2.121624756
223.76,339.579,2.111728801
224.26,339.67,2.101554825
224.76,339.751,2.091549464
225.26,339.832,2.081612573
225.76,339.909,2.071973197
226.26,339.993,2.062103314
226.76,340.08,2.051910819
227.26,340.156,2.042195663
227.76,340.237,2.032405945
228.26,340.319,2.022496101
228.76,340.401,2.012750487
229.26,340.484,2.002672515
229.76,340.568,1.992795322
230.26,340.643,1.983280214
230.76,340.732,1.97333845
231.26,340.811,1.963757066
231.76,340.896,1.954259747
232.26,340.973,1.944883041
232.76,341.058,1.93558577
233.26,341.137,1.926584308
233.76,341.218,1.917347466
234.26,341.297,1.908347953
234.76,341.381,1.899216618
235.26,341.463,1.890120127
235.76,341.544,1.881147173
236.26,341.629,1.871872807
236.76,341.709,1.862731481
237.26,341.789,1.854042154
237.76,341.87,1.845216618
238.26,341.949,1.836494152
238.76,342.034,1.827374513
239.26,342.114,1.818486598
239.76,342.199,1.809774854
240.26,342.279,1.801194444
240.76,342.362,1.792538012
241.26,342.446,1.783967836
241.76,342.53,1.775366959
242.26,342.614,1.76648538
242.76,342.692,1.757970273
243.26,342.78,1.749216618
243.76,342.859,1.740959308
244.26,342.939,1.732635965
244.76,343.024,1.7239654
245.26,343.106,1.7153404
245.76,343.19,1.706816277
246.26,343.268,1.698611111
246.76,343.352,1.690524854
247.26,343.433,1.682596491
247.76,343.516,1.674461014
248.26,343.601,1.666223441
248.76,343.685,1.658158382
249.26,343.77,1.650062378
249.76,343.852,1.642073099
250.26,343.933,1.634233431
250.76,344.016,1.626486111
251.26,344.103,1.618550682
251.76,344.179,1.610829435
252.26,344.266,1.602768519
252.76,344.353,1.594683723
253.26,344.431,1.586962232
253.76,344.514,1.579112086
254.26,344.601,1.571107212
254.76,344.678,1.563630848
255.26,344.766,1.556015838
255.76,344.847,1.548418372
256.26,344.933,1.540764133
256.76,345.013,1.533216618
257.26,345.099,1.525662524
257.76,345.183,1.518262671
258.26,345.264,1.511003168
258.76,345.345,1.503754873
259.26,345.436,1.496350146
259.76,345.518,1.488934698
260.26,345.605,1.481336745
260.76,345.689,1.473787037
261.26,345.776,1.466289961
261.76,345.862,1.458794347
262.26,345.943,1.451507066
262.76,346.026,1.444312865
263.26,346.107,1.437146686
263.76,346.19,1.430087719
264.26,346.274,1.423001462
264.76,346.36,1.415918616
265.26,346.448,1.408792641
265.76,346.53,1.401782407
266.26,346.614,1.394769981
266.76,346.697,1.3879654
267.26,346.781,1.381088694
267.76,346.862,1.37418616
268.26,346.946,1.367337476
268.76,347.029,1.360297515
269.26,347.113,1.353353314
269.76,347.2,1.346462476
270.26,347.274,1.339961257
270.76,347.362,1.333164961
271.26,347.445,1.326559454
271.76,347.531,1.319836745
272.26,347.622,1.313036793
272.76,347.701,1.30663694
273.26,347.787,1.29994152
273.76,347.869,1.293352339
274.26,347.95,1.286967349
274.76,348.037,1.280351608
275.26,348.125,1.273743177
275.76,348.208,1.267276559
276.26,348.287,1.261061404
276.76,348.371,1.254910331
277.26,348.46,1.248661793
277.76,348.547,1.24224269
278.26,348.628,1.236082846
278.76,348.717,1.22986501
279.26,348.797,1.223849415
279.76,348.886,1.217666667
280.26,348.967,1.211707115
280.76,349.048,1.205803119
281.26,349.132,1.199731238
281.76,349.222,1.193314815
282.26,349.303,1.187315789
282.76,349.391,1.18125
283.26,349.48,1.175079922
283.76,349.563,1.169158869
284.26,349.646,1.163241715
284.76,349.727,1.157556043
285.26,349.817,1.151669834
285.76,349.899,1.145983918
286.26,349.986,1.140148148
286.76,350.064,1.134420078
287.26,350.15,1.128540692
287.76,350.236,1.122827973
288.26,350.319,1.117280702
288.76,350.406,1.111495127
289.26,350.492,1.105722222
289.76,350.578,1.099653509
290.26,350.657,1.093836745
290.76,350.745,1.087795322
291.26,350.83,1.082000975
291.76,350.918,1.076277778
292.26,351.004,1.070506823
292.76,351.092,1.064601608
293.26,351.17,1.059012427
293.76,351.254,1.053502437
294.26,351.338,1.048160331
294.76,351.424,1.042854532
295.26,351.504,1.037559454
295.76,351.59,1.032273392
296.26,351.672,1.026956628
296.76,351.764,1.021566277
297.26,351.842,1.016570175
297.76,351.934,1.011409357
298.26,352.019,1.006238304
298.76,352.107,1.000889864
299.26,352.189,0.995435916
299.76,352.276,0.989923733
300.26,352.358,0.984714912
300.76,352.448,0.979286062
301.26,352.531,0.973890107
301.76,352.615,0.968575292
302.26,352.698,0.963158382
302.76,352.788,0.957699805
303.26,352.87,0.952540448
303.76,352.956,0.947371589
304.26,353.039,0.942257554
304.76,353.117,0.93754922
305.26,353.205,0.932276559
305.76,353.295,0.927154971
306.26,353.376,0.922407407
306.76,353.459,0.917504142
307.26,353.545,0.912599415
307.76,353.634,0.907591618
308.26,353.725,0.902504386
308.76,353.797,0.897697125
309.26,353.882,0.89287963
309.76,353.966,0.887789717
310.26,354.048,0.88313231
310.76,354.133,0.878472222
311.26,354.222,0.873687378
311.76,354.312,0.868704678
312.26,354.393,0.863973684
312.76,354.475,0.859342836
313.26,354.556,0.854767057
313.76,354.644,0.850112086
314.26,354.725,0.845547758
314.76,354.811,0.840980994
315.26,354.899,0.836227096
315.76,354.982,0.831443713
316.26,355.071,0.826638889
316.76,355.153,0.822198587
317.26,355.237,0.817661793
317.76,355.32,0.813136209
318.26,355.408,0.808537768
318.76,355.493,0.803928363
319.26,355.577,0.799264864
319.76,355.662,0.794579191
320.26,355.747,0.790101608
320.76,355.824,0.785895224
321.26,355.915,0.781530214
321.76,356.004,0.777117934
322.26,356.09,0.772641813
322.76,356.169,0.76843616
323.26,356.254,0.76415692
323.76,356.341,0.75985039
324.26,356.424,0.755482943
324.76,356.513,0.751220273
325.26,356.597,0.746889864
325.76,356.676,0.742660331
326.26,356.763,0.738459308
326.76,356.845,0.734314327
327.26,356.928,0.730208333
327.76,357.017,0.725830409
328.26,357.104,0.721390351
328.76,357.186,0.717056043
329.26,357.272,0.712911062
329.76,357.355,0.708844298
330.26,357.435,0.704871832
330.76,357.522,0.700606969
331.26,357.61,0.696227583
331.76,357.699,0.691917641
332.26,357.783,0.687790936
332.76,357.865,0.683690546
333.26,357.954,0.679597466
333.76,358.035,0.675725634
334.26,358.119,0.671768519
334.76,358.203,0.667574805
335.26,358.29,0.663349903
335.76,358.373,0.659262671
336.26,358.458,0.655166667
336.76,358.545,0.6511596
337.26,358.627,0.647074074
337.76,358.714,0.643068713
338.26,358.797,0.639131823
338.76,358.883,0.635103558
339.26,358.967,0.631091131
339.76,359.051,0.627278265
340.26,359.138,0.623453216
340.76,359.221,0.61963231
341.26,359.303,0.615935673
341.76,359.391,0.611999756
342.26,359.466,0.608259016
342.76,359.558,0.604253899
343.26,359.643,0.600181774
343.76,359.722,0.596252437
344.26,359.812,0.59229922
344.76,359.89,0.588310429
345.26,359.977,0.584280214
345.76,360.061,0.580323587
346.26,360.143,0.576334064
346.76,360.228,0.572486598
347.26,360.315,0.568627193
347.76,360.401,0.564738304
348.26,360.485,0.561108431
348.76,360.57,0.557329435
349.26,360.653,0.553687135
349.76,360.74,0.550071881
350.26,360.823,0.54651462
350.76,360.904,0.542950536
351.26,360.99,0.539320663
351.76,361.077,0.535704922
352.26,361.161,0.532028752
352.76,361.25,0.528352339
353.26,361.334,0.524579435
353.76,361.42,0.52088231
354.26,361.507,0.517087476
354.76,361.589,0.513409357
355.26,361.672,0.509708333
355.76,361.754,0.506148635
356.26,361.841,0.502582846
356.76,361.927,0.498853314
357.26,362.01,0.495189815
357.76,362.094,0.49164693
358.26,362.176,0.488215887
358.76,362.254,0.484888889
359.26,362.339,0.481402534
359.76,362.424,0.477919591
360.26,362.511,0.474231481
360.76,362.594,0.470623294
361.26,362.682,0.467035331
361.76,362.768,0.463502924
362.26,362.848,0.460112329
362.76,362.938,0.456535088
363.26,363.022,0.452926413
363.76,363.102,0.449287037
364.26,363.187,0.445898879
364.76,363.277,0.442315789
365.26,363.357,0.438987329
365.76,363.441,0.435504386
366.26,363.528,0.43195346
366.76,363.61,0.428462232
367.26,363.693,0.424952242
367.76,363.779,0.421656676
368.26,363.862,0.418333821
368.76,363.946,0.414902047
369.26,364.033,0.411369396
369.76,364.117,0.407979532
370.26,364.208,0.40458309
370.76,364.288,0.401113304
371.26,364.37,0.397661793
371.76,364.457,0.394296296
372.26,364.54,0.391000731
372.76,364.622,0.387527534
373.26,364.7,0.384349903
373.76,364.787,0.381211745
374.26,364.871,0.378018762
374.76,364.955,0.374902534
375.26,365.037,0.371789961
375.76,365.121,0.368775828
