Time,Temperature,Heat Flow
[s],[k],[W/g]
0.004,300.03,4.53668616
4.33E-03,300.08,4.571744639
0.01266666,300.137,4.607422027
0.021,300.191,4.643196881
0.02933333,300.248,4.679322612
0.03766667,300.305,4.715823587
0.046,300.362,4.7528923
0.05433334,300.417,4.790506823
0.06266666,300.472,4.828769493
0.071,300.539,4.867022417
0.07933334,300.599,4.905706628
0.08766666,300.659,4.944702729
0.096,300.722,4.984086257
0.1043333,300.781,5.023791423
0.1126666,300.842,5.064093567
0.121,300.907,5.105073099
0.1293333,300.978,5.145397173
0.1376667,301.047,5.180960039
0.146,301.115,5.212453704
0.1543334,301.179,5.241028265
0.1626666,301.246,5.266710526
0.171,301.319,5.288572125
0.1793333,301.385,5.307655945
0.1876666,301.455,5.323457602
0.196,301.529,5.335321637
0.2043333,301.602,5.343654971
0.2126666,301.669,5.350155945
0.221,301.747,5.353460039
0.2293333,301.816,5.357336745
0.2376666,301.888,5.361354776
0.246,301.972,5.363633041
0.2543334,302.04,5.367270955
0.2626667,302.117,5.370338694
0.271,302.193,5.373645224
0.2793333,302.27,5.376710526
0.2876667,302.347,5.379839181
0.296,302.423,5.382836257
0.3043333,302.499,5.386544834
0.3126666,302.584,5.389400585
0.321,302.664,5.392344055
0.3293334,302.749,5.395263158
0.3376666,302.826,5.398913255
0.346,302.901,5.402612086
0.3543334,302.984,5.405677388
0.3626666,303.072,5.408367446
0.371,303.152,5.411496101
0.3793334,303.242,5.413654971
0.3876666,303.325,5.415960039
0.396,303.413,5.417894737
0.4043333,303.498,5.420462963
0.4126667,303.579,5.42373538
0.421,303.663,5.426730019
0.4293333,303.754,5.428416179
0.4376666,303.837,5.430823587
0.446,303.93,5.432694932
0.4543334,304.021,5.434887914
0.4626666,304.114,5.436807992
0.471,304.202,5.439254386
0.4793334,304.294,5.44119152
0.4876666,304.384,5.443011696
0.496,304.473,5.444766082
0.5043333,304.563,5.446013645
0.5126667,304.662,5.447480507
0.521,304.753,5.449446881
0.5293334,304.848,5.450755361
0.5376668,304.948,5.451739766
0.546,305.038,5.453301657
0.5543332,305.127,5.455197368
0.5626668,305.223,5.457105263
0.571,305.323,5.458031189
0.5793332,305.413,5.459366472
0.5876668,305.508,5.461055068
0.596,305.606,5.462146686
0.6043334,305.7,5.463347953
0.6126668,305.798,5.464595517
0.621,305.896,5.465740741
0.6293332,305.992,5.467280702
0.6376668,306.093,5.468006823
0.646,306.191,5.468333333
0.6543334,306.289,5.469493177
0.6626668,306.384,5.470808967
0.671,306.484,5.471469298
0.6793334,306.591,5.471525341
0.6876666,306.688,5.472229532
0.696,306.785,5.47288499
0.7043334,306.886,5.473403996
0.7126668,306.989,5.473650097
0.721,307.087,5.474115497
0.7293334,307.191,5.474356725
0.7376666,307.294,5.474446881
0.746,307.395,5.474576023
0.7543334,307.499,5.474444444
0.7626666,307.602,5.474349415
0.771,307.708,5.47420809
0.7793334,307.808,5.474083821
0.7876668,307.905,5.474303119
0.796,308.017,5.473347953
0.8043334,308.117,5.473469786
0.8126668,308.217,5.473374756
0.821,308.325,5.472631579
0.8293334,308.435,5.471483918
0.8376668,308.536,5.471081871
0.846,308.644,5.46996345
0.8543334,308.744,5.469247076
0.8626668,308.849,5.468401559
0.871,308.955,5.466932261
0.8793334,309.057,5.466164717
0.8876666,309.164,5.46499269
0.896,309.266,5.464351852
0.9043334,309.374,5.463201754
0.9126668,309.48,5.462429337
0.921,309.584,5.461552144
0.9293334,309.696,5.460046296
0.9376668,309.799,5.459500487
0.946,309.901,5.458879142
0.9543334,310.006,5.458082359
0.9626668,310.111,5.456878655
0.971,310.218,5.455562865
0.9793334,310.324,5.454110624
0.9876668,310.429,5.45295809
0.996,310.538,5.451922515
1.004333,310.636,5.451539961
1.012667,310.741,5.450684698
1.021,310.849,5.449325049
1.029333,310.958,5.447729045
1.037667,311.066,5.445884503
1.046,311.172,5.4442154
1.054334,311.274,5.442765595
1.062667,311.381,5.440877193
1.071,311.489,5.438569688
1.079334,311.595,5.435935673
1.087666,311.703,5.433121345
1.096,311.81,5.430382554
1.104334,311.917,5.427592593
1.112667,312.028,5.424385965
1.121,312.134,5.421398635
1.129334,312.241,5.418491715
1.137667,312.343,5.415996589
1.146,312.449,5.413143275
1.154334,312.556,5.41004386
1.162667,312.666,5.406761696
1.171,312.768,5.403898635
1.179334,312.874,5.400740741
1.187667,312.981,5.397519493
1.196,313.081,5.394892788
1.204334,313.193,5.391325536
1.212666,313.294,5.38871345
1.221,313.4,5.385182749
1.229334,313.509,5.381179337
1.237667,313.618,5.377105263
1.246,313.722,5.373552632
1.254334,313.829,5.36955653
1.262667,313.937,5.365085283
1.271,314.037,5.361184211
1.279334,314.144,5.356810429
1.287666,314.247,5.352760721
1.296,314.358,5.34750731
1.304334,314.465,5.342585283
1.312666,314.564,5.338114035
1.321,314.669,5.33369883
1.329334,314.777,5.328679337
1.337666,314.885,5.323153021
1.346,314.985,5.318596491
1.354334,315.088,5.313708577
1.362666,315.192,5.308433236
1.371,315.299,5.302782651
1.379334,315.403,5.297383041
1.387666,315.508,5.291725146
1.396,315.613,5.285921053
1.404334,315.717,5.279683236
1.412666,315.811,5.274671053
1.421,315.917,5.269147173
1.429334,316.022,5.263248051
1.437666,316.127,5.256988304
1.446,316.224,5.251578947
1.454334,316.323,5.246016082
1.462666,316.427,5.240109649
1.471,316.531,5.234473684
1.479334,316.632,5.228903509
1.487666,316.731,5.223630604
1.496,316.835,5.217309942
1.504334,316.936,5.211318226
1.512666,317.04,5.204722222
1.521,317.139,5.198528265
1.529334,317.241,5.19212232
1.537666,317.345,5.185324074
1.546,317.441,5.178918129
1.554334,317.541,5.171876218
1.562666,317.637,5.16545809
1.571,317.742,5.157889864
1.579334,317.85,5.15001462
1.587666,317.948,5.142651072
1.596,318.045,5.135575049
1.604334,318.148,5.127948343
1.612666,318.244,5.120640838
1.621,318.342,5.113206628
1.629334,318.443,5.105350877
1.637666,318.538,5.097992203
1.646,318.637,5.090170565
1.654334,318.737,5.082163743
1.662666,318.831,5.074819688
1.671,318.936,5.066218324
1.679334,319.033,5.058182261
1.687666,319.129,5.050511696
1.696,319.227,5.042553606
1.704334,319.323,5.034459064
1.712666,319.418,5.026474172
1.721,319.517,5.018031189
1.729334,319.612,5.009848928
1.737666,319.713,5.001038012
1.746,319.807,4.992592593
1.754334,319.896,4.984707602
1.762666,319.996,4.976086745
1.771,320.096,4.966773879
1.779334,320.185,4.95832846
1.787666,320.286,4.949212963
1.796,320.383,4.940126706
1.804334,320.476,4.931062378
1.812666,320.572,4.921710526
1.821,320.667,4.912475634
1.829334,320.763,4.903148148
1.837666,320.86,4.893221248
1.846,320.957,4.88295078
1.854334,321.049,4.873226121
1.862666,321.141,4.86336501
1.871,321.236,4.852962963
1.879334,321.325,4.843006823
1.887666,321.422,4.832538986
1.896,321.516,4.821778752
1.904334,321.607,4.811164717
1.912666,321.703,4.800350877
1.921,321.788,4.790618908
1.929334,321.884,4.780112086
1.937666,321.98,4.769524854
1.946,322.073,4.758879142
1.954334,322.168,4.748055556
1.962666,322.256,4.737597466
1.971,322.345,4.727000487
1.979334,322.44,4.716115984
1.987666,322.531,4.705431287
1.996,322.618,4.694727096
2.004334,322.708,4.683635478
2.012666,322.799,4.672612086
2.021,322.892,4.661164717
2.029334,322.983,4.6496077
2.037666,323.072,4.63834308
2.046,323.167,4.626576511
2.054334,323.253,4.615350877
2.062666,323.34,4.60416423
2.071,323.425,4.592919103
2.079333,323.521,4.581089181
2.087666,323.608,4.569678363
2.096,323.698,4.557794834
2.104334,323.784,4.546425439
2.112666,323.87,4.535324074
2.121,323.953,4.524410331
2.129333,324.047,4.512392788
2.137666,324.135,4.500757797
2.146,324.218,4.48957115
2.154333,324.311,4.477626706
2.162666,324.401,4.465480019
2.171,324.488,4.453767057
2.179334,324.576,4.44172271
2.187666,324.66,4.429797758
2.196,324.751,4.417380604
2.204333,324.838,4.405012183
2.212666,324.928,4.392495127
2.221,325.009,4.380716374
2.229334,325.099,4.367931287
2.237666,325.185,4.355204678
2.246,325.268,4.34291423
2.254333,325.349,4.330692008
2.262666,325.439,4.318157895
2.271,325.525,4.30579922
2.279333,325.61,4.293082359
2.287666,325.695,4.280333821
2.296,325.774,4.268479532
2.304334,325.86,4.255855263
2.312666,325.946,4.243218811
2.321,326.03,4.230969786
2.329333,326.117,4.218289474
2.337666,326.206,4.205121832
2.346,326.285,4.192599903
2.354334,326.371,4.179471248
2.362666,326.456,4.16672271
2.371,326.538,4.1542154
2.379333,326.628,4.140721248
2.387666,326.706,4.127860624
2.396,326.786,4.114931774
2.404333,326.878,4.101098928
2.412666,326.953,4.088209064
2.421,327.037,4.075085283
2.429334,327.121,4.061893275
2.437666,327.204,4.048545322
2.446,327.281,4.035423977
2.454333,327.368,4.021917641
2.462666,327.452,4.008745127
2.471,327.538,3.995275341
2.479334,327.614,3.982334308
2.487666,327.691,3.969490741
2.496,327.775,3.95623538
2.504333,327.861,3.942702242
2.512666,327.938,3.92957115
2.521,328.024,3.916306043
2.529333,328.107,3.902853314
2.537666,328.191,3.888966862
2.546,328.272,3.875017057
2.554334,328.357,3.860984405
2.562666,328.435,3.84707115
2.571,328.517,3.833148148
2.579333,328.602,3.81872076
2.587666,328.677,3.805141326
2.596,328.76,3.791006335
2.604334,328.84,3.776939571
2.612666,328.92,3.7629654
2.621,329.002,3.748957115
2.629333,329.081,3.735438596
2.637666,329.16,3.721976121
2.646,329.237,3.709005848
2.654333,329.321,3.69537037
2.662666,329.401,3.682019981
2.671,329.485,3.668262671
2.679334,329.566,3.654678363
2.687666,329.648,3.641028265
2.696,329.726,3.62752924
2.704333,329.802,3.614371345
2.712666,329.889,3.600423977
2.721,329.963,3.587183236
2.729334,330.05,3.573082359
2.737666,330.129,3.559281189
2.746,330.213,3.545307018
2.754333,330.296,3.531306043
2.762666,330.373,3.517709552
2.771,330.453,3.504096004
2.779333,330.528,3.490748051
2.787666,330.609,3.476922515
2.796,330.689,3.46333577
2.804334,330.763,3.45
2.812666,330.845,3.436274366
2.821,330.93,3.42255117
2.829333,331.004,3.409522417
2.837666,331.087,3.396094055
2.846,331.167,3.382731481
2.854334,331.251,3.36910575
2.862666,331.327,3.355862573
2.871,331.404,3.342629142
2.879333,331.484,3.329346979
2.887666,331.56,3.316254873
2.896,331.642,3.302880117
2.904333,331.719,3.289649123
2.912666,331.798,3.276150097
2.921,331.883,3.262300195
2.929334,331.956,3.248901072
2.937666,332.04,3.235197368
2.946,332.115,3.222141813
2.954333,332.194,3.208944932
2.962666,332.279,3.195095029
2.971,332.358,3.181637427
2.979334,332.434,3.168391813
2.987666,332.512,3.155041423
2.996,332.588,3.14208577
3.004333,332.668,3.128988791
3.012666,332.753,3.115740741
3.021,332.827,3.103057992
3.029333,332.908,3.090131579
3.037666,332.991,3.077010234
3.046,333.064,3.064373782
3.054334,333.14,3.051859162
3.062666,333.219,3.039188596
3.071,333.294,3.026924951
3.079333,333.376,3.01413499
3.087666,333.456,3.001347466
3.096,333.535,2.988898635
3.104334,333.613,2.976498538
3.112666,333.695,2.963628168
3.121,333.775,2.950801657
3.129333,333.852,2.938442982
3.137666,333.929,2.925638402
3.146,334.007,2.91292885
3.154333,334.086,2.900060916
3.162666,334.161,2.887709552
3.171,334.25,2.874897661
3.179334,334.322,2.862573099
3.187666,334.405,2.849688109
3.196,334.483,2.8370346
3.204334,334.566,2.824415205
3.212666,334.642,2.811963938
3.221,334.711,2.800224172
3.229334,334.795,2.787923977
3.237666,334.875,2.775599415
3.246,334.949,2.763216374
3.254333,335.037,2.750411793
3.262666,335.11,2.73829922
3.271,335.189,2.726169591
3.279334,335.268,2.714334795
3.287666,335.344,2.702509747
3.296,335.424,2.690494639
3.304334,335.505,2.678196881
3.312666,335.586,2.66582846
3.321,335.669,2.653603801
3.329334,335.746,2.641900585
3.337666,335.824,2.630163255
3.346,335.901,2.618496589
3.354334,335.982,2.606539961
3.362666,336.058,2.594580897
3.371,336.136,2.582741228
3.379333,336.221,2.570623782
3.387666,336.307,2.558652534
3.396,336.385,2.546749513
3.404334,336.462,2.534990253
3.412666,336.537,2.523408869
3.421,336.619,2.511574074
3.429334,336.696,2.499895224
3.437666,336.777,2.488123782
3.446,336.858,2.476503411
3.454334,336.939,2.464817251
3.462666,337.02,2.453308967
3.471,337.1,2.441661793
3.479334,337.175,2.430739035
3.487666,337.255,2.419740741
3.496,337.333,2.40854922
3.504333,337.422,2.397111842
3.512666,337.497,2.386172027
3.521,337.583,2.374898148
3.529334,337.664,2.364035331
3.537666,337.736,2.353426413
3.546,337.82,2.34258577
3.554334,337.898,2.331956628
3.562666,337.981,2.320784357
3.571,338.062,2.309677875
3.579334,338.139,2.299043616
3.587666,338.221,2.288189815
3.596,338.301,2.277519737
3.604334,338.387,2.266529727
3.612666,338.466,2.255643762
3.621,338.541,2.245101852
3.629333,338.622,2.234222953
3.637666,338.702,2.223771686
3.646,338.782,2.213534113
3.654334,338.863,2.203341618
3.662666,338.94,2.193060916
3.671,339.017,2.182869396
3.679334,339.101,2.172427388
3.687666,339.182,2.16226462
3.696,339.259,2.152433723
3.704334,339.34,2.14230117
3.712666,339.426,2.13188499
3.721,339.504,2.121624756
3.729334,339.579,2.111728801
3.737666,339.67,2.101554825
3.746,339.751,2.091549464
3.754333,339.832,2.081612573
3.762666,339.909,2.071973197
3.771,339.993,2.062103314
3.779334,340.08,2.051910819
3.787666,340.156,2.042195663
3.796,340.237,2.032405945
3.804334,340.319,2.022496101
3.812666,340.401,2.012750487
3.821,340.484,2.002672515
3.829334,340.568,1.992795322
3.837666,340.643,1.983280214
3.846,340.732,1.97333845
3.854334,340.811,1.963757066
3.862666,340.896,1.954259747
3.871,340.973,1.944883041
3.879333,341.058,1.93558577
3.887666,341.137,1.926584308
3.896,341.218,1.917347466
3.904334,341.297,1.908347953
3.912666,341.381,1.899216618
3.921,341.463,1.890120127
3.929334,341.544,1.881147173
3.937666,341.629,1.871872807
3.946,341.709,1.862731481
3.954334,341.789,1.854042154
3.962666,341.87,1.845216618
3.971,341.949,1.836494152
3.979334,342.034,1.827374513
3.987666,342.114,1.818486598
3.996,342.199,1.809774854
4.004334,342.279,1.801194444
4.012666,342.362,1.792538012
4.021,342.446,1.783967836
4.029333,342.53,1.775366959
4.037666,342.614,1.76648538
4.046,342.692,1.757970273
4.054333,342.78,1.749216618
4.062667,342.859,1.740959308
4.071,342.939,1.732635965
4.079334,343.024,1.7239654
4.087666,343.106,1.7153404
4.096,343.19,1.706816277
4.104334,343.268,1.698611111
4.112666,343.352,1.690524854
4.121,343.433,1.682596491
4.129334,343.516,1.674461014
4.137666,343.601,1.666223441
4.146,343.685,1.658158382
4.154333,343.77,1.650062378
4.162666,343.852,1.642073099
4.171,343.933,1.634233431
4.179333,344.016,1.626486111
4.187667,344.103,1.618550682
4.196,344.179,1.610829435
4.204334,344.266,1.602768519
4.212666,344.353,1.594683723
4.221,344.431,1.586962232
4.229334,344.514,1.579112086
4.237666,344.601,1.571107212
4.246,344.678,1.563630848
4.254334,344.766,1.556015838
4.262666,344.847,1.548418372
4.271,344.933,1.540764133
4.279333,345.013,1.533216618
4.287666,345.099,1.525662524
4.296,345.183,1.518262671
4.304333,345.264,1.511003168
4.312667,345.345,1.503754873
4.321,345.436,1.496350146
4.329334,345.518,1.488934698
4.337666,345.605,1.481336745
4.346,345.689,1.473787037
4.354334,345.776,1.466289961
4.362666,345.862,1.458794347
4.371,345.943,1.451507066
4.379334,346.026,1.444312865
4.387666,346.107,1.437146686
4.396,346.19,1.430087719
4.404333,346.274,1.423001462
4.412666,346.36,1.415918616
4.421,346.448,1.408792641
4.429333,346.53,1.401782407
4.437667,346.614,1.394769981
4.446,346.697,1.3879654
4.454334,346.781,1.381088694
4.462666,346.862,1.37418616
4.471,346.946,1.367337476
4.479334,347.029,1.360297515
4.487666,347.113,1.353353314
4.496,347.2,1.346462476
4.504334,347.274,1.339961257
4.512666,347.362,1.333164961
4.521,347.445,1.326559454
4.529333,347.531,1.319836745
4.537666,347.622,1.313036793
4.546,347.701,1.30663694
4.554333,347.787,1.29994152
4.562667,347.869,1.293352339
4.571,347.95,1.286967349
4.579334,348.037,1.280351608
4.587666,348.125,1.273743177
4.596,348.208,1.267276559
4.604334,348.287,1.261061404
4.612666,348.371,1.254910331
4.621,348.46,1.248661793
4.629334,348.547,1.24224269
4.637666,348.628,1.236082846
4.646,348.717,1.22986501
4.654333,348.797,1.223849415
4.662666,348.886,1.217666667
4.671,348.967,1.211707115
4.679333,349.048,1.205803119
4.687667,349.132,1.199731238
4.696,349.222,1.193314815
4.704334,349.303,1.187315789
4.712666,349.391,1.18125
4.721,349.48,1.175079922
4.729334,349.563,1.169158869
4.737666,349.646,1.163241715
4.746,349.727,1.157556043
4.754334,349.817,1.151669834
4.762666,349.899,1.145983918
4.771,349.986,1.140148148
4.779333,350.064,1.134420078
4.787666,350.15,1.128540692
4.796,350.236,1.122827973
4.804333,350.319,1.117280702
4.812667,350.406,1.111495127
4.821,350.492,1.105722222
4.829334,350.578,1.099653509
4.837666,350.657,1.093836745
4.846,350.745,1.087795322
4.854334,350.83,1.082000975
4.862666,350.918,1.076277778
4.871,351.004,1.070506823
4.879334,351.092,1.064601608
4.887666,351.17,1.059012427
4.896,351.254,1.053502437
4.904333,351.338,1.048160331
4.912666,351.424,1.042854532
4.921,351.504,1.037559454
4.929333,351.59,1.032273392
4.937667,351.672,1.026956628
4.946,351.764,1.021566277
4.954334,351.842,1.016570175
4.962666,351.934,1.011409357
4.971,352.019,1.006238304
4.979334,352.107,1.000889864
4.987666,352.189,0.995435916
4.996,352.276,0.989923733
5.004334,352.358,0.984714912
5.012666,352.448,0.979286062
5.021,352.531,0.973890107
5.029333,352.615,0.968575292
5.037666,352.698,0.963158382
5.046,352.788,0.957699805
5.054333,352.87,0.952540448
5.062667,352.956,0.947371589
5.071,353.039,0.942257554
5.079334,353.117,0.93754922
5.087666,353.205,0.932276559
5.096,353.295,0.927154971
5.104334,353.376,0.922407407
5.112666,353.459,0.917504142
5.121,353.545,0.912599415
5.129334,353.634,0.907591618
5.137666,353.725,0.902504386
5.146,353.797,0.897697125
5.154333,353.882,0.89287963
5.162666,353.966,0.887789717
5.171,354.048,0.88313231
5.179333,354.133,0.878472222
5.187667,354.222,0.873687378
5.196,354.312,0.868704678
5.204334,354.393,0.863973684
5.212666,354.475,0.859342836
5.221,354.556,0.854767057
5.229334,354.644,0.850112086
5.237666,354.725,0.845547758
5.246,354.811,0.840980994
5.254334,354.899,0.836227096
5.262666,354.982,0.831443713
5.271,355.071,0.826638889
5.279332,355.153,0.822198587
5.287666,355.237,0.817661793
5.296,355.32,0.813136209
5.304332,355.408,0.808537768
5.312668,355.493,0.803928363
5.321,355.577,0.799264864
5.329334,355.662,0.794579191
5.337666,355.747,0.790101608
5.346,355.824,0.785895224
5.354334,355.915,0.781530214
5.362666,356.004,0.777117934
5.371,356.09,0.772641813
5.379334,356.169,0.76843616
5.387666,356.254,0.76415692
5.396,356.341,0.75985039
5.404332,356.424,0.755482943
5.412666,356.513,0.751220273
5.421,356.597,0.746889864
5.429332,356.676,0.742660331
5.437668,356.763,0.738459308
5.446,356.845,0.734314327
5.454334,356.928,0.730208333
5.462666,357.017,0.725830409
5.471,357.104,0.721390351
5.479334,357.186,0.717056043
5.487666,357.272,0.712911062
5.496,357.355,0.708844298
5.504334,357.435,0.704871832
5.512666,357.522,0.700606969
5.521,357.61,0.696227583
5.529332,357.699,0.691917641
5.537666,357.783,0.687790936
5.546,357.865,0.683690546
5.554332,357.954,0.679597466
5.562668,358.035,0.675725634
5.571,358.119,0.671768519
5.579334,358.203,0.667574805
5.587666,358.29,0.663349903
5.596,358.373,0.659262671
5.604334,358.458,0.655166667
5.612666,358.545,0.6511596
5.621,358.627,0.647074074
5.629334,358.714,0.643068713
5.637666,358.797,0.639131823
5.646,358.883,0.635103558
5.654332,358.967,0.631091131
5.662666,359.051,0.627278265
5.671,359.138,0.623453216
5.679332,359.221,0.61963231
5.687668,359.303,0.615935673
5.696,359.391,0.611999756
5.704334,359.466,0.608259016
5.712666,359.558,0.604253899
5.721,359.643,0.600181774
5.729334,359.722,0.596252437
5.737666,359.812,0.59229922
5.746,359.89,0.588310429
5.754334,359.977,0.584280214
5.762666,360.061,0.580323587
5.771,360.143,0.576334064
5.779332,360.228,0.572486598
5.787666,360.315,0.568627193
5.796,360.401,0.564738304
5.804332,360.485,0.561108431
5.812668,360.57,0.557329435
5.821,360.653,0.553687135
5.829334,360.74,0.550071881
5.837666,360.823,0.54651462
5.846,360.904,0.542950536
5.854334,360.99,0.539320663
5.862666,361.077,0.535704922
5.871,361.161,0.532028752
5.879334,361.25,0.528352339
5.887666,361.334,0.524579435
5.896,361.42,0.52088231
5.904332,361.507,0.517087476
5.912666,361.589,0.513409357
5.921,361.672,0.509708333
5.929332,361.754,0.506148635
5.937668,361.841,0.502582846
5.946,361.927,0.498853314
