Time,Temperature,Heat Flow
[s],[k],[W/g]
0.002466667,300.04801,2.910943766
4.33E-03,300.15542,2.975171854
0.01266666,300.26516,3.039672045
0.021,300.3823,3.103644739
0.02933333,300.49546,3.167552988
0.03766667,300.61002,3.231038763
0.046,300.71575,3.294569887
0.05433334,300.8244,3.357905289
0.06266666,300.94131,3.420999618
0.071,301.05362,3.479668703
0.07933334,301.16712,3.530086404
0.08766666,301.27014,3.575494081
0.096,301.38283,3.614707848
0.1043333,301.49325,3.648045159
0.1126666,301.60742,3.675606263
0.121,301.71792,3.69732194
0.1293333,301.83772,3.712676628
0.1376667,301.94419,3.72300697
0.146,302.05149,3.727859462
0.1543334,302.16606,3.728155432
0.1626666,302.28185,3.728026542
0.171,302.38712,3.727792629
0.1793333,302.49546,3.727033607
0.1876666,302.6095,3.72605022
0.196,302.71506,3.725295971
0.2043333,302.82671,3.724462956
0.2126666,302.93235,3.723995131
0.221,303.04253,3.723508211
0.2293333,303.15503,3.722479473
0.2376666,303.26201,3.721457896
0.246,303.3721,3.720464961
0.2543334,303.48046,3.719457705
0.2626667,303.58925,3.718190281
0.271,303.70056,3.716330915
0.2793333,303.81255,3.714211381
0.2876667,303.91644,3.71241646
0.296,304.0229,3.710421043
0.3043333,304.13178,3.707914837
0.3126666,304.24045,3.705504105
0.321,304.34482,3.703167367
0.3293334,304.45829,3.700021482
0.3376666,304.56774,3.696894692
0.346,304.67342,3.69395885
0.3543334,304.77969,3.691443097
0.3626666,304.8878,3.688227993
0.371,304.99426,3.68498186
0.3793334,305.09735,3.682014989
0.3876666,305.2078,3.6780886
0.396,305.31907,3.67382089
0.4043333,305.41786,3.670271625
0.4126667,305.52354,3.666435937
0.421,305.63198,3.662292343
0.4293333,305.7361,3.657795494
0.4376666,305.84038,3.653494367
0.446,305.94297,3.649665839
0.4543334,306.04826,3.645192859
0.4626666,306.15383,3.640476418
0.471,306.257,3.635912736
0.4793334,306.36659,3.630709376
0.4876666,306.46015,3.626568169
0.496,306.561,3.622281363
0.5043333,306.66297,3.617992171
0.5126667,306.77031,3.613588409
0.521,306.8776,3.608494844
0.5293334,306.9763,3.603389345
0.5376668,307.08279,3.598018904
0.546,307.1858,3.592283273
0.5543332,307.28926,3.586819744
0.5626668,307.38545,3.58185507
0.571,307.49018,3.575868818
0.5793332,307.58193,3.569978041
0.5876668,307.6871,3.56302511
0.596,307.79262,3.555938514
0.6043334,307.89426,3.548961715
0.6126668,307.9952,3.541987302
0.621,308.0947,3.534814779
0.6293332,308.19261,3.527864235
0.6376668,308.29391,3.520426771
0.646,308.39597,3.51274346
0.6543334,308.49266,3.505260645
0.6626668,308.59079,3.497558239
0.671,308.6921,3.48985822
0.6793334,308.79122,3.482334829
0.6876666,308.8965,3.473971262
0.696,308.98746,3.466474126
0.7043334,309.08813,3.458282414
0.7126668,309.18777,3.449904525
0.721,309.28211,3.441674623
0.7293334,309.38382,3.432864713
0.7376666,309.48394,3.423930686
0.746,309.58083,3.415039622
0.7543334,309.67722,3.4058502
0.7626666,309.77078,3.396558144
0.771,309.8649,3.387772102
0.7793334,309.96414,3.378169754
0.7876668,310.06103,3.368569792
0.796,310.15438,3.359339794
0.8043334,310.2484,3.350016708
0.8126668,310.34009,3.340980046
0.821,310.4436,3.331499427
0.8293334,310.53237,3.322326714
0.8376668,310.62854,3.312717205
0.846,310.72022,3.303160206
0.8543334,310.81832,3.292882375
0.8626668,310.90562,3.283108173
0.871,311.00161,3.273061867
0.8793334,311.09687,3.262669467
0.8876666,311.19059,3.252143403
0.896,311.28013,3.24184409
0.9043334,311.38152,3.230444434
0.9126668,311.47204,3.219247661
0.921,311.56167,3.208478136
0.9293334,311.65892,3.197092801
0.9376668,311.74752,3.186141875
0.946,311.83794,3.175279263
0.9543334,311.93387,3.163812774
0.9626668,312.02405,3.15223649
0.971,312.11976,3.140154191
0.9793334,312.20912,3.128048024
0.9876668,312.29993,3.115944243
0.996,312.39185,3.104165075
1.004333,312.48156,3.091987302
1.012667,312.5673,3.080129368
1.021,312.66391,3.067774967
1.029333,312.74828,3.055690281
1.037667,312.84688,3.042961142
1.046,312.92926,3.030814398
1.054334,313.02378,3.018488639
1.062667,313.10991,3.006153332
1.071,313.19266,2.994130705
1.079334,313.28164,2.981716632
1.087666,313.37706,2.969020909
1.096,313.46344,2.956279836
1.104334,313.55532,2.943092419
1.112667,313.64045,2.929950353
1.121,313.72783,2.916829769
1.129334,313.81042,2.904231908
1.137667,313.90383,2.89054325
1.146,313.99288,2.877055089
1.154334,314.08378,2.863256635
1.162667,314.16652,2.849854401
1.171,314.25464,2.836094138
1.179334,314.3393,2.822660875
1.187667,314.42841,2.808769334
1.196,314.5129,2.795240596
1.204334,314.60328,2.781325186
1.212666,314.68278,2.76729282
1.221,314.77226,2.753243746
1.229334,314.85579,2.739466775
1.237667,314.94029,2.725649227
1.246,315.02168,2.712036949
1.254334,315.115,2.697658488
1.262667,315.1944,2.68388629
1.271,315.28046,2.670016231
1.279334,315.36301,2.656134237
1.287666,315.44848,2.642104258
1.296,315.53574,2.628040863
1.304334,315.61777,2.614080103
1.312666,315.70188,2.600322226
1.321,315.7839,2.586361466
1.329334,315.86581,2.572164407
1.337666,315.95582,2.557821749
1.346,316.04059,2.543276208
1.354334,316.1291,2.528527783
1.362666,316.21063,2.513674336
1.371,316.29724,2.498680065
1.379334,316.38019,2.484048597
1.387666,316.46646,2.46882996
1.396,316.54646,2.453666221
1.404334,316.62967,2.438695818
1.412666,316.70971,2.423505824
1.421,316.79056,2.408404144
1.429334,316.87756,2.393249952
1.437666,316.9598,2.3782848
1.446,317.04126,2.363411543
1.454334,317.1207,2.348505347
1.462666,317.2009,2.333434218
1.471,317.28638,2.318529215
1.479334,317.36728,2.303919945
1.487666,317.45464,2.288617529
1.496,317.53448,2.273586023
1.504334,317.61217,2.258757399
1.512666,317.69422,2.243798931
1.521,317.78376,2.228143021
1.529334,317.86362,2.212963529
1.537666,317.93916,2.197953981
1.546,318.02515,2.182617195
1.554334,318.10516,2.167120489
1.562666,318.18293,2.15183144
1.571,318.27032,2.136259786
1.579334,318.34994,2.120890777
1.587666,318.43207,2.105389775
1.596,318.50813,2.090132232
1.604334,318.59092,2.075125549
1.612666,318.66718,2.060119343
1.621,318.75446,2.044617863
1.629334,318.83128,2.029305423
1.637666,318.91202,2.014329292
1.646,318.99019,1.999144548
1.654334,319.0719,1.984165553
1.662666,319.15524,1.96919873
1.671,319.23117,1.954061963
1.679334,319.31002,1.939001575
1.687666,319.39486,1.923495799
1.696,319.46982,1.908453552
1.704334,319.55276,1.893441617
1.712666,319.63291,1.878575043
1.721,319.71283,1.86329936
1.729334,319.7913,1.84800697
1.737666,319.86796,1.832667558
1.746,319.95081,1.817105213
1.754334,320.03076,1.801770336
1.762666,320.1075,1.786333063
1.771,320.18974,1.770907485
1.779334,320.26512,1.755840176
1.787666,320.3509,1.740201929
1.796,320.42502,1.72507996
1.804334,320.51059,1.709609271
1.812666,320.59038,1.694212097
1.821,320.66846,1.679025205
1.829334,320.74338,1.664046448
1.837666,320.82691,1.64892257
1.846,320.9095,1.633766469
1.854334,320.98875,1.618743794
1.862666,321.0626,1.603823993
1.871,321.13968,1.589244797
1.879334,321.22131,1.574230953
1.887666,321.3055,1.559498759
1.896,321.37598,1.545063491
1.904334,321.45672,1.530473315
1.912666,321.53033,1.516227802
1.921,321.61604,1.501886576
1.929334,321.69156,1.487718159
1.937666,321.77691,1.473339221
1.946,321.85111,1.459271052
1.954334,321.93154,1.444585402
1.962666,322.00974,1.430075664
1.971,322.08854,1.415693622
1.979334,322.16308,1.40158249
1.987666,322.2465,1.387114283
1.996,322.32526,1.372679969
2.004334,322.40455,1.357997184
2.012666,322.48379,1.343490548
2.021,322.56078,1.329209232
2.029334,322.63859,1.314799742
2.037666,322.7231,1.300453265
2.046,322.79344,1.286612087
2.054334,322.87944,1.272386624
2.062666,322.95571,1.257979759
2.071,323.03816,1.24355022
2.079333,323.1152,1.229503055
2.087666,323.19692,1.215485488
2.096,323.27185,1.201434027
2.104334,323.35551,1.187440806
2.112666,323.43372,1.17354115
2.121,323.51806,1.159867768
2.129333,323.5928,1.146240691
2.137666,323.67813,1.132175625
2.146,323.75286,1.118590319
2.154333,323.83497,1.105154669
2.162666,323.91068,1.091568646
2.171,323.99297,1.077710283
2.179334,324.07294,1.06419157
2.187666,324.14848,1.050510311
2.196,324.23048,1.036915935
2.204333,324.31297,1.023054707
2.212666,324.39219,1.009390873
2.221,324.47424,0.995948539
2.229334,324.55283,0.982633426
2.237666,324.63267,0.969361753
2.246,324.71124,0.956204888
2.254333,324.79036,0.943235154
2.262666,324.86759,0.930248472
2.271,324.95182,0.917153189
2.279333,325.0315,0.904119725
2.287666,325.10981,0.891261218
2.296,325.19137,0.878295064
2.304334,325.26913,0.865733722
2.312666,325.35264,0.853066164
2.321,325.42326,0.840481192
2.329333,325.50507,0.827916746
2.337666,325.58291,0.815522246
2.346,325.6605,0.803258068
2.354334,325.74911,0.790775253
2.362666,325.8292,0.778335879
2.371,325.91246,0.765992219
2.379333,325.99515,0.753904907
2.387666,326.07162,0.741366479
2.396,326.14722,0.729135717
2.404333,326.22607,0.717061772
2.412666,326.31395,0.70469663
2.421,326.39235,0.692441999
2.429334,326.4787,0.680047976
2.437666,326.55855,0.667897174
2.446,326.63175,0.65623544
2.454333,326.71626,0.644545541
2.462666,326.79376,0.63273081
2.471,326.88262,0.62114999
2.479334,326.96187,0.609525492
2.487666,327.03892,0.597737254
2.496,327.1207,0.586138056
2.504333,327.20438,0.574703552
2.512666,327.28777,0.563294825
2.521,327.3648,0.552228136
2.529333,327.44466,0.540760932
2.537666,327.52388,0.529323802
2.546,327.60958,0.518229425
2.554334,327.69512,0.507003533
2.562666,327.7728,0.495950449
2.571,327.85302,0.484997613
2.579333,327.93911,0.474036662
2.587666,328.01832,0.463100535
2.596,328.1031,0.45227659
2.604334,328.17874,0.441524728
2.612666,328.26143,0.430848052
2.621,328.34428,0.420114092
2.629333,328.42907,0.409350773
2.637666,328.51166,0.398636385
2.646,328.59144,0.388059003
2.654333,328.67081,0.377622207
2.662666,328.75506,0.367294252
2.671,328.83672,0.356958182
2.679334,328.91695,0.34665338
2.687666,329.00273,0.336360273
2.696,329.08398,0.326317071
2.704333,329.16283,0.316438323
2.712666,329.23821,0.306812106
2.721,329.32429,0.297418131
2.729334,329.4066,0.287898845
2.737666,329.49032,0.27816307
2.746,329.57394,0.268270002
2.754333,329.65952,0.258585545
2.762666,329.74268,0.248831631
2.771,329.82588,0.239010407
2.779333,329.90428,0.229245465
2.787666,329.98896,0.219614808
2.796,330.07959,0.209742887
2.804334,330.15855,0.200010049
2.812666,330.24371,0.190320269
2.821,330.3279,0.180929349
2.829333,330.41153,0.171623353
2.837666,330.49735,0.16221613
2.846,330.5747,0.153100487
2.854334,330.66175,0.144134786
2.862666,330.74373,0.135023033
2.871,330.82869,0.125722217
2.879333,330.91218,0.116429611
2.887666,330.99258,0.107343279
2.896,331.07351,0.098563681
2.904333,331.16275,0.089563681
2.912666,331.2522,0.080675267
2.921,331.33209,0.072015897
2.929334,331.41542,0.063580628
2.937666,331.50484,0.054804516
2.946,331.5863,0.046324446
2.954333,331.66953,0.037989736
2.962666,331.75468,0.029872923
2.971,331.84316,0.021655251
2.979334,331.92092,0.01323982
2.987666,332.01075,0.005160392
2.996,332.08724,-0.002809547
3.004333,332.17317,-0.010657547
3.012666,332.25526,-0.018678103
3.021,332.3404,-0.026325711
3.029333,332.42965,-0.034148415
3.037666,332.51618,-0.042023224
3.046,332.59418,-0.049921568
3.054334,332.6799,-0.057508497
3.062666,332.76724,-0.065103876
3.071,332.85012,-0.072941689
3.079333,332.9381,-0.080742696
3.087666,333.02604,-0.088696367
3.096,333.10899,-0.096529096
3.104334,333.19348,-0.104256063
3.112666,333.27918,-0.112083492
3.121,333.364,-0.119599986
3.129333,333.45029,-0.127014178
3.137666,333.54039,-0.134869582
3.146,333.6265,-0.14246045
3.154333,333.7178,-0.149828194
3.162666,333.80371,-0.157320269
3.171,333.88484,-0.164525134
3.179334,333.96528,-0.171769978
3.187666,334.05339,-0.17899494
3.196,334.13734,-0.186144859
3.204334,334.22592,-0.19316942
3.212666,334.31054,-0.200167438
3.221,334.39883,-0.207011338
3.229334,334.48418,-0.21391288
3.237666,334.57304,-0.220723649
3.246,334.66068,-0.227575878
3.254333,334.74453,-0.234272699
3.262666,334.829,-0.240794109
3.271,334.91851,-0.247376838
3.279334,335.00259,-0.253855977
3.287666,335.08895,-0.260519143
3.296,335.1778,-0.267170374
3.304334,335.26204,-0.273856693
3.312666,335.3493,-0.280519381
3.321,335.4346,-0.287088982
3.329334,335.52314,-0.293338982
3.337666,335.61046,-0.300158965
3.346,335.69188,-0.306858889
3.354334,335.78137,-0.313363806
3.362666,335.87266,-0.319750334
3.371,335.95138,-0.325961667
3.379333,336.04151,-0.332209996
3.387666,336.1216,-0.338168322
3.396,336.21738,-0.344046448
3.404334,336.30452,-0.350318169
3.412666,336.39029,-0.35649346
3.421,336.4727,-0.362366097
3.429334,336.5644,-0.368456893
3.437666,336.64606,-0.374464388
3.446,336.73524,-0.380330103
3.454334,336.82387,-0.386450019
3.462666,336.90859,-0.392625072
3.471,336.99919,-0.398678633
3.479334,337.08996,-0.404814779
3.487666,337.18014,-0.410670947
3.496,337.26516,-0.416603494
3.504333,337.35208,-0.422490453
3.512666,337.4388,-0.428346382
3.521,337.5256,-0.434205891
3.529334,337.61084,-0.440002148
3.537666,337.70012,-0.445568312
3.546,337.78618,-0.450953074
3.554334,337.86768,-0.456367434
3.562666,337.95699,-0.461641207
3.571,338.04978,-0.466835975
3.579334,338.13463,-0.472104019
3.587666,338.22008,-0.477392114
3.596,338.31066,-0.482521482
3.604334,338.39372,-0.487844186
3.612666,338.48261,-0.493047069
3.621,338.57224,-0.498284323
3.629333,338.65738,-0.503567405
3.637666,338.74972,-0.50889345
3.646,338.83348,-0.514236204
3.654334,338.92363,-0.519722169
3.662666,339.0086,-0.524952024
3.671,339.0954,-0.530106693
3.679334,339.18072,-0.535303848
3.687666,339.27105,-0.540424146
3.696,339.35722,-0.545598864
3.704334,339.44768,-0.550607218
3.712666,339.53349,-0.555583588
3.721,339.62561,-0.560448253
3.729334,339.71068,-0.565330342
3.737666,339.79625,-0.569969926
3.746,339.8831,-0.574742935
3.754333,339.97325,-0.579715486
3.762666,340.05799,-0.584576332
3.771,340.15112,-0.58917701
3.779334,340.2365,-0.593995131
3.787666,340.3192,-0.598873162
3.796,340.41036,-0.603500812
3.804334,340.50112,-0.60827764
3.812666,340.58848,-0.612968541
3.821,340.67525,-0.617584018
3.829334,340.76296,-0.62227826
3.837666,340.85156,-0.626621635
3.846,340.9394,-0.631192477
3.854334,341.03032,-0.635863567
3.862666,341.11926,-0.640519859
3.871,341.20478,-0.645101919
3.879333,341.29014,-0.649902855
3.887666,341.37978,-0.654518331
3.896,341.46553,-0.659165075
3.904334,341.55664,-0.663867911
3.912666,341.64278,-0.668440663
3.921,341.73404,-0.672911495
3.929334,341.82055,-0.677382089
3.937666,341.90922,-0.681849341
3.946,341.99861,-0.68614641
3.954334,342.08655,-0.690601967
3.962666,342.16894,-0.694918847
3.971,342.25638,-0.699159586
3.979334,342.34956,-0.703454268
3.987666,342.43316,-0.707582824
3.996,342.51705,-0.711924289
4.004334,342.6071,-0.716350487
4.012666,342.69988,-0.720856168
4.021,342.78618,-0.725131755
4.029333,342.87358,-0.729377984
4.037666,342.96545,-0.733714197
4.046,343.04491,-0.738363806
4.054333,343.13331,-0.742705748
4.062667,343.22334,-0.746848864
4.071,343.30779,-0.751318026
4.079334,343.39212,-0.755577143
4.087666,343.48218,-0.759638629
4.096,343.57136,-0.763625167
4.104334,343.66214,-0.767806473
4.112666,343.75138,-0.772081583
4.121,343.83644,-0.776194386
4.129334,343.92008,-0.780149418
4.137666,344.00863,-0.784118293
4.146,344.09443,-0.788185984
4.154333,344.17934,-0.792130036
4.162666,344.26798,-0.796047117
4.171,344.36206,-0.800221501
4.179333,344.44871,-0.804120202
4.187667,344.53287,-0.807978089
4.196,344.61845,-0.81158798
4.204334,344.70781,-0.815250859
4.212666,344.80138,-0.818966011
4.221,344.88946,-0.822949446
4.229334,344.97684,-0.826867004
4.237666,345.0626,-0.830920852
4.246,345.15368,-0.834931974
4.254334,345.23681,-0.838683884
4.262666,345.32484,-0.84254726
4.271,345.41201,-0.846437369
4.279333,345.49903,-0.850286901
4.287666,345.58539,-0.854129989
4.296,345.6789,-0.85787784
4.304333,345.75788,-0.861759595
4.312667,345.84262,-0.865576666
4.321,345.934,-0.868946916
4.329334,346.0248,-0.872428394
4.337666,346.11391,-0.876021339
4.346,346.19712,-0.879687321
4.354334,346.28531,-0.883298644
4.362666,346.372,-0.886993269
4.371,346.45429,-0.890526065
4.379334,346.54141,-0.894033321
4.387666,346.62694,-0.897418369
4.396,346.71538,-0.900668322
4.404333,346.80546,-0.904261027
4.412666,346.88922,-0.907794539
4.421,346.979,-0.91124451
4.429333,347.06381,-0.914726943
4.437667,347.15538,-0.918208421
4.446,347.248,-0.921823086
4.454334,347.33119,-0.925677153
4.462666,347.41744,-0.929417367
4.471,347.50321,-0.933146124
4.479334,347.58951,-0.936930495
4.487666,347.67866,-0.940494081
4.496,347.76828,-0.94401709
4.504334,347.85393,-0.947580437
4.512666,347.9398,-0.951155242
4.521,348.02403,-0.954700687
4.529333,348.10949,-0.9581213
4.537666,348.19802,-0.961388199
4.546,348.28301,-0.964755347
4.554333,348.37369,-0.968176437
4.562667,348.45859,-0.971563872
4.571,348.5404,-0.97489832
4.579334,348.63255,-0.978126551
4.587666,348.71931,-0.981356215
4.596,348.80608,-0.984706893
4.604334,348.89069,-0.988085736
4.612666,348.98238,-0.991296305
4.621,349.06734,-0.994695914
4.629334,349.15824,-0.997902664
4.637666,349.24529,-1.001153332
4.646,349.32929,-1.004575138
4.654333,349.41942,-1.007974986
4.662666,349.50656,-1.011409681
4.671,349.59026,-1.014763939
4.679333,349.6765,-1.018037521
4.687667,349.76331,-1.021168131
4.696,349.84766,-1.024496849
4.704334,349.93441,-1.027700496
4.712666,350.01956,-1.031049981
4.721,350.1086,-1.034442906
4.729334,350.19734,-1.037760168
4.737666,350.2814,-1.041047833
4.746,350.3639,-1.044281554
4.754334,350.4503,-1.047624594
4.762666,350.53736,-1.050813443
4.771,350.6229,-1.053944291
4.779333,350.7079,-1.057065114
4.787666,350.798,-1.060173286
4.796,350.88699,-1.063112946
4.804333,350.97455,-1.065986252
4.812667,351.0578,-1.069047403
4.821,351.14449,-1.072082776
4.829334,351.23006,-1.075234629
4.837666,351.3195,-1.078378127
4.846,351.404,-1.08159347
4.854334,351.49356,-1.084744606
4.862666,351.58522,-1.087914837
4.871,351.66044,-1.09128461
4.879334,351.74869,-1.094325711
4.887666,351.83612,-1.097266565
4.896,351.91788,-1.10022532
4.904333,352.00836,-1.103098625
4.912666,352.09524,-1.105883855
4.921,352.17795,-1.108599866
4.929333,352.26425,-1.111320412
4.937667,352.35068,-1.11406435
4.946,352.43794,-1.116728089
4.954334,352.52324,-1.119439087
4.962666,352.61025,-1.122388772
4.971,352.69284,-1.125302177
4.979334,352.77782,-1.128130609
4.987666,352.86632,-1.130956655
4.996,352.94951,-1.133885335
5.004334,353.03508,-1.136851728
5.012666,353.12582,-1.139682309
5.021,353.2082,-1.142554898
5.029333,353.29401,-1.145357075
5.037666,353.37976,-1.148145885
5.046,353.46187,-1.15081392
5.054333,353.55018,-1.153576714
5.062667,353.63694,-1.156358125
5.071,353.72398,-1.15909347
5.079334,353.80455,-1.161924766
5.087666,353.88682,-1.164511409
5.096,353.97849,-1.167037665
5.104334,354.05712,-1.169954411
5.112666,354.14288,-1.172586882
5.121,354.22994,-1.175064445
5.129334,354.3156,-1.177721023
5.137666,354.39732,-1.180338935
5.146,354.48292,-1.18294873
5.154333,354.57097,-1.185536089
5.162666,354.65528,-1.188225606
5.171,354.74151,-1.19115548
5.179333,354.82939,-1.193929731
5.187667,354.91513,-1.196602778
5.196,355.0005,-1.19926055
5.204334,355.0804,-1.202168703
5.212666,355.16871,-1.204740071
5.221,355.25484,-1.207428633
5.229334,355.33922,-1.209985679
5.237666,355.42519,-1.212526255
5.246,355.51054,-1.21503819
5.254334,355.59239,-1.217362278
5.262666,355.68124,-1.219641016
5.271,355.76226,-1.222087789
5.279332,355.85314,-1.224605213
5.287666,355.93142,-1.227281841
5.296,356.01876,-1.22973291
5.304332,356.10488,-1.232124546
5.312668,356.1902,-1.234532175
5.321,356.27499,-1.237019286
5.329334,356.35949,-1.239478232
5.337666,356.44298,-1.242059385
5.346,356.5261,-1.244608316
5.354334,356.61688,-1.247023344
5.362666,356.70316,-1.249410206
5.371,356.78562,-1.251761505
5.379334,356.86712,-1.254154573
5.387666,356.95126,-1.256449303
5.396,357.03375,-1.258812774
5.404332,357.11782,-1.261054277
5.412666,357.2059,-1.263259977
5.421,357.28739,-1.265446821
5.429332,357.37364,-1.267532939
5.437668,357.46204,-1.269586118
5.446,357.54038,-1.27175148
5.454334,357.62803,-1.273795828
5.462666,357.70672,-1.276114665
5.471,357.79516,-1.278211046
