Time,Temperature,Heat Flow
[s],[K],[W/g]
0.15,300.04801,2.910943766
2.76,300.71575,3.294569887
5.76,301.38283,3.614707848
8.76,302.05149,3.727859462
11.76,302.71506,3.725295971
14.76,303.3721,3.720464961
17.76,304.0229,3.710421043
20.76,304.67342,3.69395885
23.76,305.31907,3.67382089
26.76,305.94297,3.649665839
29.76,306.561,3.622281363
32.76,307.1858,3.592283273
35.76,307.79262,3.555938514
38.76,308.39597,3.51274346
41.76,308.98746,3.466474126
44.76,309.58083,3.415039622
47.76,310.15438,3.359339794
50.76,310.72022,3.303160206
53.76,311.28013,3.24184409
56.76,311.83794,3.175279263
59.76,312.39185,3.104165075
62.76,312.92926,3.030814398
65.76,313.46344,2.956279836
68.76,313.99288,2.877055089
71.76,314.5129,2.795240596
74.76,315.02168,2.712036949
77.76,315.53574,2.628040863
80.76,316.04059,2.543276208
83.76,316.54646,2.453666221
86.76,317.04126,2.363411543
89.76,317.53448,2.273586023
92.76,318.02515,2.182617195
95.76,318.50813,2.090132232
98.76,318.99019,1.999144548
101.76,319.46982,1.908453552
104.76,319.95081,1.817105213
107.76,320.42502,1.72507996
110.76,320.9095,1.633766469
113.76,321.37598,1.545063491
116.76,321.85111,1.459271052
119.76,322.32526,1.372679969
122.76,322.79344,1.286612087
125.76,323.27185,1.201434027
128.76,323.75286,1.118590319
131.76,324.23048,1.036915935
134.76,324.71124,0.956204888
137.76,325.19137,0.878295064
140.76,325.6605,0.803258068
143.76,326.14722,0.729135717
146.76,326.63175,0.65623544
149.76,327.1207,0.586138056
152.76,327.60958,0.518229425
155.76,328.1031,0.45227659
158.76,328.59144,0.388059003
161.76,329.08398,0.326317071
164.76,329.57394,0.268270002
167.76,330.07959,0.209742887
170.76,330.5747,0.153100487
173.76,331.07351,0.098563681
176.76,331.5863,0.046324446
179.76,332.08724,-0.002809547
182.76,332.59418,-0.049921568
185.76,333.10899,-0.096529096
188.76,333.6265,-0.14246045
191.76,334.13734,-0.186144859
194.76,334.66068,-0.227575878
197.76,335.1778,-0.267170374
200.76,335.69188,-0.306858889
203.76,336.21738,-0.344046448
206.76,336.73524,-0.380330103
209.76,337.26516,-0.416603494
212.76,337.78618,-0.450953074
215.76,338.31066,-0.482521482
218.76,338.83348,-0.514236204
221.76,339.35722,-0.545598864
224.76,339.8831,-0.574742935
227.76,340.41036,-0.603500812
230.76,340.9394,-0.631192477
233.76,341.46553,-0.659165075
236.76,341.99861,-0.68614641
239.76,342.51705,-0.711924289
242.76,343.04491,-0.738363806
245.76,343.57136,-0.763625167
248.76,344.09443,-0.788185984
251.76,344.61845,-0.81158798
254.76,345.15368,-0.834931974
257.76,345.6789,-0.85787784
260.76,346.19712,-0.879687321
263.76,346.71538,-0.900668322
266.76,347.248,-0.921823086
269.76,347.76828,-0.94401709
272.76,348.28301,-0.964755347
275.76,348.80608,-0.984706893
278.76,349.32929,-1.004575138
281.76,349.84766,-1.024496849
284.76,350.3639,-1.044281554
287.76,350.88699,-1.063112946
290.76,351.404,-1.08159347
293.76,351.91788,-1.10022532
296.76,352.43794,-1.116728089
299.76,352.94951,-1.133885335
302.76,353.46187,-1.15081392
305.76,353.97849,-1.167037665
308.76,354.48292,-1.18294873
311.76,355.0005,-1.19926055
314.76,355.51054,-1.21503819
317.76,356.01876,-1.22973291
320.76,356.5261,-1.244608316
323.76,357.03375,-1.258812774
326.76,357.54038,-1.27175148
329.76,358.04886,-1.284894023
332.76,358.56006,-1.298393641
335.76,359.06691,-1.312061295
338.76,359.57414,-1.324615715
341.76,360.07976,-1.33639536
344.76,360.59061,-1.348529454
347.76,361.1032,-1.359735058
350.76,361.60122,-1.371203934
353.76,362.10843,-1.381007733
356.76,362.61281,-1.391182213
359.76,363.11382,-1.400787426
362.76,363.62695,-1.410004296
365.76,364.12805,-1.418704888
368.76,364.62609,-1.42671687
371.76,365.13504,-1.435141302
374.76,365.63916,-1.443240405
377.76,366.14841,-1.449964436
380.76,366.65282,-1.456503724
383.76,367.16059,-1.463190042
386.76,367.66416,-1.469042391
389.76,368.16866,-1.474881373
392.76,368.67531,-1.479946534
395.76,369.18745,-1.484624069
398.76,369.68547,-1.489488734
401.76,370.19469,-1.493190758
404.76,370.70949,-1.497056998
407.76,371.21194,-1.500522246
410.76,371.72274,-1.503092181
413.76,372.23012,-1.505981717
416.76,372.73316,-1.508677678
419.76,373.2419,-1.510418656
422.76,373.7544,-1.512092801
425.76,374.2591,-1.51396076
428.76,374.769,-1.514881134
431.76,375.2787,-1.515788381
434.76,375.7835,-1.517454411
437.76,376.3002,-1.517101871
440.76,376.8034,-1.516782748
443.76,377.3172,-1.516812106
446.76,377.8319,-1.515833015
449.76,378.3455,-1.515078289
452.76,378.8546,-1.514667271
455.76,379.36,-1.514410206
458.76,379.8657,-1.513970307
461.76,380.3809,-1.512872112
464.76,380.8907,-1.5118059
467.76,381.3964,-1.511247136
470.76,381.9127,-1.509932213
473.76,382.4199,-1.508666221
476.76,382.9264,-1.506693956
479.76,383.4395,-1.505438228
482.76,383.9473,-1.503728041
485.76,384.4586,-1.501265515
488.76,384.9686,-1.499586595
491.76,385.4815,-1.498508211
494.76,385.9888,-1.497261791
497.76,386.4911,-1.495524394
500.76,387.0061,-1.493232051
503.76,387.519,-1.491557189
506.76,388.0302,-1.489878986
509.76,388.5318,-1.488501528
512.76,389.0398,-1.487315257
515.76,389.5415,-1.48558693
518.76,390.0535,-1.483532557
521.76,390.5568,-1.481375549
524.76,391.0704,-1.479561295
527.76,391.5727,-1.478048501
530.76,392.0818,-1.47646983
533.76,392.5866,-1.474393021
536.76,393.0919,-1.472542247
539.76,393.6015,-1.471329005
542.76,394.1052,-1.469910731
545.76,394.6164,-1.467935364
548.76,395.1192,-1.466173859
551.76,395.628,-1.464231192
554.76,396.1346,-1.462364904
557.76,396.6466,-1.461008211
560.76,397.1544,-1.459281077
563.76,397.6613,-1.457150325
566.76,398.1717,-1.454503533
569.76,398.6751,-1.451912832
572.76,399.1837,-1.449959423
575.76,399.685,-1.448235154
578.76,400.1941,-1.44556497
581.76,400.6964,-1.44288882
584.76,401.2018,-1.439780409
587.76,401.702,-1.436643116
590.76,402.2058,-1.433933788
593.76,402.7143,-1.43089746
596.76,403.2122,-1.428103876
599.76,403.7146,-1.42527067
602.76,404.2262,-1.422219544
605.76,404.7306,-1.418775301
608.76,405.2345,-1.415795541
611.76,405.7418,-1.412877363
614.76,406.246,-1.409590414
617.76,406.7451,-1.406200592
620.76,407.2526,-1.402694291
623.76,407.7503,-1.3992732
626.76,408.2619,-1.395554946
629.76,408.768,-1.391881325
632.76,409.2734,-1.388237541
635.76,409.7791,-1.384823372
638.76,410.2814,-1.381462192
641.76,410.787,-1.377492839
644.76,411.2953,-1.373686271
647.76,411.7978,-1.370580008
650.76,412.304,-1.36683502
653.76,412.8134,-1.363069983
656.76,413.3149,-1.35959662
659.76,413.8241,-1.356113233
662.76,414.3297,-1.35245274
665.76,414.831,-1.348849055
668.76,415.3344,-1.345231048
671.76,415.837,-1.341797308
674.76,416.3446,-1.338150181
677.76,416.8468,-1.334639584
680.76,417.3546,-1.330909156
683.76,417.8552,-1.326841942
686.76,418.3683,-1.323237063
689.76,418.8618,-1.319712144
692.76,419.3748,-1.315786233
695.76,419.8726,-1.312422188
698.76,420.3812,-1.309144548
701.76,420.8858,-1.305532748
704.76,421.3884,-1.301697059
707.76,421.8894,-1.297856597
710.76,422.3945,-1.293918513
713.76,422.8988,-1.290677869
716.76,423.4036,-1.28757447
719.76,423.908,-1.283881994
722.76,424.4162,-1.280208134
725.76,424.9182,-1.276450019
728.76,425.4275,-1.272429826
731.76,425.9244,-1.268721119
734.76,426.4331,-1.265516994
737.76,426.9451,-1.262131468
740.76,427.4457,-1.258730905
743.76,427.9482,-1.255705318
746.76,428.4518,-1.252421234
749.76,428.9537,-1.249332395
752.76,429.4546,-1.246512316
755.76,429.9579,-1.243681497
758.76,430.4675,-1.240202883
761.76,430.9724,-1.236858173
764.76,431.4729,-1.233827573
767.76,431.9728,-1.231374594
770.76,432.4759,-1.228490309
773.76,432.9839,-1.225845904
776.76,433.4886,-1.222949685
779.76,433.9863,-1.220039622
782.76,434.4919,-1.217603112
785.76,434.9911,-1.214622398
788.76,435.5,-1.211313729
791.76,436.0006,-1.208911113
794.76,436.5013,-1.206189374
797.76,437.0016,-1.203538047
800.76,437.5042,-1.200865715
803.76,438.0063,-1.198077382
806.76,438.5087,-1.195433932
809.76,439.0122,-1.192769238
812.76,439.5089,-1.19001814
815.76,440.0234,-1.187575664
818.76,440.5215,-1.185087837
821.76,441.0194,-1.182931545
824.76,441.5217,-1.180929206
827.76,442.0264,-1.178698682
830.76,442.5299,-1.17620632
833.76,443.0278,-1.174114474
836.76,443.5322,-1.171835497
839.76,444.0322,-1.169677774
842.76,444.5404,-1.167595236
845.76,445.0392,-1.165490739
848.76,445.5382,-1.162811008
851.76,446.0492,-1.161024441
854.76,446.551,-1.158840462
857.76,447.0469,-1.156196773
860.76,447.5541,-1.154132137
863.76,448.0506,-1.151752673
866.76,448.5551,-1.149229998
869.76,449.0573,-1.147161543
872.76,449.555,-1.14472933
875.76,450.061,-1.142052225
878.76,450.5676,-1.139006588
881.76,451.0724,-1.135270193
884.76,451.5746,-1.132271339
887.76,452.0749,-1.129481096
890.76,452.5753,-1.126711381
893.76,453.0725,-1.124345045
896.76,453.5762,-1.121900181
899.76,454.0808,-1.119237875
902.76,454.5793,-1.116213481
905.76,455.0794,-1.111610894
908.76,455.5809,-1.107017854
911.76,456.0829,-1.103004105
914.76,456.5875,-1.098343995
917.76,457.0906,-1.093377172
920.76,457.5928,-1.088930447
923.76,458.0938,-1.084494462
926.76,458.5981,-1.080318885
929.76,459.0984,-1.076052129
932.76,459.5966,-1.07194577
935.76,460.0955,-1.068021768
938.76,460.6007,-1.063798692
941.76,461.0999,-1.059395646
944.76,461.6041,-1.055266374
947.76,462.1064,-1.051214913
950.76,462.6094,-1.047297833
953.76,463.11,-1.043159251
956.76,463.6147,-1.038189087
959.76,464.1198,-1.032757304
962.76,464.6175,-1.027552034
965.76,465.1255,-1.022918178
968.76,465.6261,-1.018543775
971.76,466.1262,-1.013457132
974.76,466.6301,-1.00777258
977.76,467.1258,-1.002660636
980.76,467.6287,-0.998270479
983.76,468.1285,-0.994044061
986.76,468.634,-0.989411877
989.76,469.1312,-0.984254105
992.76,469.6289,-0.979532652
995.76,470.1343,-0.974918847
998.76,470.6375,-0.969565114
1001.76,471.1341,-0.964369868
1004.76,471.6358,-0.959496372
1007.76,472.1373,-0.954310674
1010.76,472.6351,-0.948822799
1013.76,473.1396,-0.944238113
1016.76,473.6378,-0.939758449
1019.76,474.1336,-0.935100248
1022.76,474.6385,-0.930352062
1025.76,475.1354,-0.924859891
1028.76,475.6412,-0.919513557
1031.76,476.141,-0.91399704
1034.76,476.6411,-0.908348768
1037.76,477.1385,-0.903254726
1040.76,477.6387,-0.898668847
1043.76,478.1408,-0.89380275
1046.76,478.6414,-0.888896792
1049.76,479.1438,-0.883357838
1052.76,479.6465,-0.87783058
1055.76,480.1446,-0.872403571
1058.76,480.6523,-0.86666794
1061.76,481.1526,-0.860804134
1064.76,481.6468,-0.855047737
1067.76,482.1544,-0.84932046
1070.76,482.6553,-0.843461428
1073.76,483.1556,-0.838078576
1076.76,483.6574,-0.832677344
1079.76,484.1592,-0.827087073
1082.76,484.6666,-0.820358029
1085.76,485.169,-0.813729234
1088.76,485.6728,-0.807185411
1091.76,486.1703,-0.800836118
1094.76,486.673,-0.794340749
1097.76,487.1756,-0.78764536
1100.76,487.6771,-0.781419706
1103.76,488.1778,-0.774499236
1106.76,488.6776,-0.767631755
1109.76,489.1776,-0.760346095
1112.76,489.6776,-0.752916746
1115.76,490.1831,-0.746091274
1118.76,490.6828,-0.739310197
1121.76,491.1794,-0.732000191
1124.76,491.677,-0.723960283
1127.76,492.1762,-0.716575807
1130.76,492.6786,-0.708142543
1133.76,493.1783,-0.700001671
1136.76,493.685,-0.692072752
1139.76,494.1814,-0.68438037
1142.76,494.6816,-0.676140443
1145.76,495.1852,-0.667681402
1148.76,495.6888,-0.659828385
1151.76,496.1849,-0.652552511
1154.76,496.6822,-0.64402616
1157.76,497.1825,-0.634958469
1160.76,497.6827,-0.6263481
1163.76,498.1889,-0.618399609
1166.76,498.6891,-0.610951881
1169.76,499.1951,-0.603274776
1172.76,499.6913,-0.59535254
1175.76,500.1898,-0.588011743
1178.76,500.6952,-0.581144023
1181.76,501.1933,-0.573037044
1184.76,501.696,-0.565231048
1187.76,502.1961,-0.557653714
1190.76,502.694,-0.549910731
1193.76,503.1958,-0.541717586
1196.76,503.7008,-0.533608698
1199.76,504.1938,-0.524906196
1202.76,504.6944,-0.517478518
1205.76,505.1934,-0.510109796
1208.76,505.7017,-0.502694768
1211.76,506.1943,-0.49543059
1214.76,506.6933,-0.487742983
1217.76,507.1912,-0.479844854
1220.76,507.6896,-0.473164025
1223.76,508.187,-0.466988018
1226.76,508.6902,-0.460201929
1229.76,509.1922,-0.452509786
1232.76,509.6904,-0.444606168
1235.76,510.1879,-0.436085784
1238.76,510.6868,-0.428497709
1241.76,511.1813,-0.421258593
1244.76,511.6815,-0.414163405
1247.76,512.1803,-0.406315639
1250.76,512.6828,-0.399019238
1253.76,513.1798,-0.392700735
1256.76,513.6765,-0.38587383
1259.76,514.171,-0.378247088
1262.76,514.6742,-0.370894596
1265.76,515.1758,-0.363734724
1268.76,515.6738,-0.35733292
1271.76,516.1698,-0.350543489
1274.76,516.6699,-0.343464293
1277.76,517.1698,-0.336665791
1280.76,517.6664,-0.329235249
1283.76,518.1619,-0.322680686
1286.76,518.656,-0.315796496
1289.76,519.1558,-0.308068073
1292.76,519.6575,-0.300437035
1295.76,520.1523,-0.293777926
1298.76,520.6497,-0.288001002
1301.76,521.1491,-0.282137913
1304.76,521.649,-0.274531459
1307.76,522.1462,-0.266590128
1310.76,522.6445,-0.259794252
1313.76,523.1518,-0.252296639
1316.76,523.6504,-0.243894167
1319.76,524.1455,-0.236802439
1322.76,524.6419,-0.230143355
1325.76,525.1502,-0.223955891
1328.76,525.6406,-0.216845355
1331.76,526.138,-0.210569935
1334.76,526.6358,-0.204903666
1337.76,527.1382,-0.197727229
1340.76,527.6335,-0.190526852
1343.76,528.133,-0.184471835
1346.76,528.6324,-0.178532557
1349.76,529.1272,-0.172398797
1352.76,529.6223,-0.166468446
1355.76,530.1255,-0.158899203
1358.76,530.6258,-0.150036256
1361.76,531.1192,-0.143228781
1364.76,531.6174,-0.137204315
1367.76,532.1183,-0.13102721
1370.76,532.6197,-0.124668703
1373.76,533.1164,-0.117686987
1376.76,533.6105,-0.112313825
1379.76,534.111,-0.10773291
1382.76,534.607,-0.102221119
1385.76,535.11,-0.096060817
1388.76,535.6044,-0.089416221
1391.76,536.1015,-0.082880084
1394.76,536.6017,-0.076972885
1397.76,537.0965,-0.07041825
1400.76,537.5992,-0.063736801
1403.76,538.097,-0.05636636
1406.76,538.5924,-0.050346572
1409.76,539.0901,-0.04459526
1412.76,539.589,-0.038355619
1415.76,540.0849,-0.032275635
1418.76,540.5828,-0.026799504
1421.76,541.083,-0.020421892
1424.76,541.5772,-0.014903196
1427.76,542.0763,-0.009738281
1430.76,542.5726,-0.00331356
1433.76,543.0648,0.002983344
1436.76,543.5633,0.009575067
1439.76,544.0646,0.016265746
1442.76,544.5594,0.022678786
1445.76,545.0562,0.028902974
1448.76,545.5582,0.033752291
1451.76,546.0513,0.039053657
1454.76,546.5488,0.044817429
1457.76,547.0466,0.051152807
1460.76,547.547,0.05748797
1463.76,548.0402,0.062956129
1466.76,548.5416,0.067460044
1469.76,549.0379,0.073468088
1472.76,549.5331,0.078843684
1475.76,550.0336,0.083533655
1478.76,550.5282,0.08825444
1481.76,551.0235,0.092823754
1484.76,551.5205,0.097309385
1487.76,552.018,0.102090749
1490.76,552.5133,0.107445007
1493.76,553.0133,0.11215085
1496.76,553.5108,0.117596835
1499.76,554.0078,0.123532079
1502.76,554.508,0.129628891
1505.76,555.007,0.135491025
1508.76,555.5016,0.139612302
1511.76,555.996,0.143475368
1514.76,556.4946,0.147059695
1517.76,556.9949,0.151693718
1520.76,557.4891,0.156327955
1523.76,557.9832,0.159456893
1526.76,558.4773,0.164227922
1529.76,558.9747,0.171389297
1532.76,559.4694,0.178608173
1535.76,559.9712,0.183719926
1538.76,560.4655,0.18801351
1541.76,560.9607,0.191685411
1544.76,561.4542,0.195717634
1547.76,561.953,0.200240262
1550.76,562.4497,0.203946343
1553.76,562.9448,0.206713887
1556.76,563.4437,0.210270957
1559.76,563.9389,0.214783297
1562.76,564.4371,0.220129082
1565.76,564.9291,0.225105547
1568.76,565.425,0.228945961
1571.76,565.9256,0.234606645
1574.76,566.4175,0.239878031
1577.76,566.9156,0.243788428
1580.76,567.4182,0.248324661
1583.76,567.9117,0.253042295
1586.76,568.406,0.257758259
1589.76,568.9025,0.262488543
1592.76,569.3985,0.266726179
1595.76,569.8972,0.270680972
1598.76,570.3954,0.274122828
1601.76,570.8868,0.279103494
1604.76,571.3853,0.284388963
1607.76,571.8826,0.290033655
1610.76,572.3746,0.295665457
1613.76,572.8737,0.30160421
1616.76,573.3676,0.307145551
1619.76,573.8688,0.311485822
1622.76,574.3605,0.315129368
1625.76,574.8568,0.320166126
1628.76,575.3564,0.325069935
1631.76,575.8516,0.330595522
1634.76,576.3489,0.335327
1637.76,576.8459,0.340179015
1640.76,577.3432,0.345031029
1643.76,577.837,0.349463672
1646.76,578.33,0.35330676
1649.76,578.8275,0.356678919
1652.76,579.3266,0.359503771
1655.76,579.819,0.360969066
1658.76,580.318,0.362756826
1661.76,580.8128,0.366505156
1664.76,581.3074,0.369566784
1667.76,581.8024,0.371988018
1670.76,582.2968,0.376349055
1673.76,582.7965,0.378808956
1676.76,583.295,0.380427487
1679.76,583.785,0.382071319
1682.76,584.2824,0.383511075
1685.76,584.7727,0.384092992
1688.76,585.2716,0.386674623
1691.76,585.7648,0.389081535
1694.76,586.2631,0.390268045
1697.76,586.7546,0.390576666
1700.76,587.2529,0.390298597
1703.76,587.749,0.390478327
1706.76,588.2435,0.39030528
1709.76,588.7425,0.390654239
1712.76,589.2354,0.391327096
1715.76,589.7334,0.391159299
1718.76,590.2256,0.390597432
1721.76,590.7224,0.389438133
1724.76,591.2167,0.386804468
1727.76,591.7127,0.384980666
1730.76,592.2033,0.382949446
1733.76,592.7016,0.380349437
1736.76,593.1962,0.376363615
1739.76,593.6914,0.371745274
1742.76,594.1794,0.367767567
1745.76,594.6748,0.363680542
1748.76,595.1685,0.359819076
1751.76,595.6661,0.355524632
1754.76,596.1575,0.350702931
1757.76,596.6548,0.34606287
1760.76,597.1454,0.34055232
1763.76,597.6365,0.335544921
1766.76,598.1237,0.330107409
1769.76,598.6211,0.322982146
1772.76,599.1159,0.315024823
1775.76,599.606,0.307814111
1778.76,600.0992,0.301451929
1781.76,600.5872,0.293065448
1784.76,601.0856,0.282055089
1787.76,601.5758,0.27331583
1790.76,602.0667,0.265929922
1793.76,602.5533,0.256881325
1796.76,603.0425,0.246434027
1799.76,603.5358,0.234174169
1802.76,604.0274,0.222235536
1805.76,604.52,0.211907366
1808.76,605.0119,0.200396697
1811.76,605.5035,0.186938109
1814.76,605.9975,0.172750955
1817.76,606.4854,0.159302606
1820.76,606.9762,0.146711786
1823.76,607.4665,0.13344577
1826.76,607.952,0.119388343
1829.76,608.4473,0.104487397
1832.76,608.9388,0.089154907
1835.76,609.4334,0.073193933
1838.76,609.9241,0.056825568
1841.76,610.4146,0.039505872
1844.76,610.9042,0.021384738
1847.76,611.3938,0.003437531
1850.76,611.883,-0.015218945
1853.76,612.3672,-0.035198706
1856.76,612.8609,-0.057158846
1859.76,613.3512,-0.078126957
1862.76,613.843,-0.098013247
1865.76,614.3318,-0.118575568
1868.76,614.8202,-0.140727659
1871.76,615.3103,-0.164118365
1874.76,615.7989,-0.186721907
1877.76,616.2876,-0.210239904
1880.76,616.7726,-0.234343279
1883.76,617.2656,-0.257720307
1886.76,617.755,-0.281626886
1889.76,618.2428,-0.306347145
1892.76,618.7332,-0.332462765
1895.76,619.219,-0.358808239
1898.76,619.7037,-0.384092515
1901.76,620.1909,-0.409772771
1904.76,620.6789,-0.434370346
1907.76,621.1681,-0.460777162
1910.76,621.6598,-0.487391159
1913.76,622.1478,-0.512172284
1916.76,622.6356,-0.536737159
1919.76,623.1232,-0.561537617
1922.76,623.6081,-0.586856502
1925.76,624.0952,-0.611980141
1928.76,624.5878,-0.635962622
1931.76,625.0706,-0.659658679
1934.76,625.5554,-0.684820747
1937.76,626.0487,-0.7095422
1940.76,626.5412,-0.730637054
1943.76,627.03,-0.751592515
1946.76,627.5224,-0.772796926
1949.76,628.0119,-0.791901136
1952.76,628.5023,-0.80949136
1955.76,628.994,-0.825740405
1958.76,629.4804,-0.84295971
1961.76,629.9748,-0.858644023
1964.76,630.4706,-0.869463911
1967.76,630.9652,-0.876345952
1970.76,631.4553,-0.885021004
1973.76,631.9502,-0.89561223
1976.76,632.4418,-0.904050267
1979.76,632.9396,-0.908015801
1982.76,633.4328,-0.909850582
1985.76,633.9282,-0.910874546
1988.76,634.422,-0.909989259
1991.76,634.9176,-0.906336166
1994.76,635.416,-0.902084209
1997.76,635.9144,-0.896851728
2000.76,636.4046,-0.891491551
2003.76,636.9029,-0.883775539
2006.76,637.3965,-0.873539956
2009.76,637.8864,-0.882273248
2012.76,638.386,-0.890354926
2015.76,638.886,-0.883723506
2018.76,639.3839,-0.876136863
2021.76,639.8826,-0.862192095
2024.76,640.3797,-0.84717109
2027.76,640.8816,-0.825746372
2030.76,641.37,-0.815792438
2033.76,641.8705,-0.817324566
2036.76,642.364,-0.803579101
2039.76,642.8605,-0.793194577
2042.76,643.3614,-0.780981001
2045.76,643.8598,-0.766773916
2048.76,644.3603,-0.748752148
2051.76,644.8574,-0.730400516
