Time (s),Mass (g),HRR (kW/m2)
0,119.8,4.6
5,120.3,4.0
10,120.3,2.9
15,120.2,-11.6
20,120.1,142.6
25,119.4,212.7
30,118.8,219.5
35,118.2,205.9
40,117.5,194.3
45,116.9,178.8
50,116.6,168.8
55,116.1,162.6
60,115.5,152.4
65,115.1,150.0
70,114.6,143.6
75,114.2,136.6
80,113.7,134.2
85,113.4,137.7
90,113.0,131.8
95,112.6,130.4
100,112.3,126.2
105,111.8,125.0
110,111.4,125.7
115,111.1,121.9
120,110.7,118.4
125,110.3,117.0
130,109.9,114.1
135,109.6,111.0
140,109.2,111.0
145,109.0,111.3
150,108.5,111.5
155,108.2,108.9
160,107.9,110.2
165,107.5,108.7
170,107.2,108.4
175,106.9,106.8
180,106.6,107.4
185,106.2,105.9
190,105.8,106.7
195,105.5,106.1
200,105.2,107.7
205,105.0,106.8
210,104.6,105.6
215,104.2,106.0
220,104.0,102.8
225,103.5,102.0
230,103.3,103.1
235,102.9,102.7
240,102.6,99.6
245,102.2,103.7
250,101.9,104.0
255,101.7,103.9
260,101.3,100.1
265,101.0,101.4
270,100.6,100.1
275,100.3,103.2
280,100.0,103.4
285,99.6,99.2
290,99.4,100.7
295,99.1,100.4
300,98.7,101.9
305,98.4,103.7
310,98.1,105.8
315,97.8,102.9
320,97.4,99.8
325,97.2,100.5
330,96.8,99.6
335,96.6,97.4
340,96.3,98.5
345,96.0,99.6
350,95.7,100.4
355,95.3,99.2
360,95.0,98.7
365,94.6,99.6
370,94.4,100.0
375,94.1,98.9
380,93.7,99.6
385,93.5,99.3
390,93.2,94.4
395,92.8,97.1
400,92.5,98.6
405,92.2,100.6
410,91.9,98.4
415,91.6,99.0
420,91.3,97.0
425,90.9,100.5
430,90.6,99.8
435,90.3,96.8
440,90.1,96.8
445,89.7,97.6
450,89.4,98.1
455,89.1,99.7
460,88.8,98.6
465,88.5,99.5
470,88.2,99.7
475,87.8,101.4
480,87.5,101.1
485,87.2,99.8
490,86.9,100.9
495,86.6,101.6
500,86.2,100.8
505,85.9,101.6
510,85.7,103.2
515,85.3,101.8
520,85.0,101.9
525,84.7,98.3
530,84.3,101.5
535,84.0,101.3
540,83.7,101.7
545,83.5,100.4
550,83.0,101.8
555,82.9,102.1
560,82.5,102.5
565,82.2,103.6
570,81.9,101.8
575,81.6,101.9
580,81.3,104.0
585,80.8,102.8
590,80.6,104.7
595,80.3,103.5
600,79.9,104.4
605,79.7,104.1
610,79.4,105.8
615,79.0,102.0
620,78.8,102.9
625,78.4,104.7
630,78.2,106.2
635,77.7,104.9
640,77.4,105.1
645,77.1,103.3
650,76.8,103.6
655,76.5,106.9
660,76.2,108.2
665,75.9,108.8
670,75.6,110.3
675,75.2,108.6
680,74.9,106.4
685,74.6,108.0
690,74.2,109.1
695,73.9,107.7
700,73.6,110.7
705,73.3,112.3
710,72.9,110.3
715,72.6,114.6
720,72.3,111.4
725,71.9,110.4
730,71.7,114.9
735,71.3,111.6
740,71.0,115.8
745,70.6,114.1
750,70.2,115.0
755,69.9,116.9
760,69.6,115.0
765,69.3,113.9
770,69.0,114.6
775,68.7,117.2
780,68.3,116.2
785,68.0,119.1
790,67.6,116.6
795,67.3,119.4
800,67.0,119.3
805,66.6,118.7
810,66.3,119.7
815,66.0,120.5
820,65.6,120.1
825,65.3,120.9
830,64.9,120.2
835,64.5,123.1
840,64.1,124.7
845,63.9,124.1
850,63.5,128.5
855,63.1,123.9
860,62.7,126.7
865,62.4,129.4
870,62.1,130.6
875,61.8,129.5
880,61.4,130.0
885,61.1,131.8
890,60.7,131.9
895,60.3,133.8
900,59.9,133.7
905,59.5,134.4
910,59.2,138.4
915,58.8,138.1
920,58.4,138.7
925,58.1,138.1
930,57.7,139.7
935,57.2,139.4
940,56.9,141.5
945,56.6,140.7
950,56.1,141.8
955,55.7,143.9
960,55.3,142.8
965,54.9,146.5
970,54.4,146.1
975,54.1,147.3
980,53.5,151.2
985,53.2,153.0
990,52.8,152.0
995,52.4,149.8
1000,51.9,154.0
1005,51.6,154.1
1010,51.1,155.7
1015,50.6,157.7
1020,50.1,161.0
1025,49.7,160.6
1030,49.4,162.9
1035,48.9,160.7
1040,48.5,160.8
1045,47.9,162.4
1050,47.5,165.7
1055,47.1,162.4
1060,46.6,162.5
1065,46.1,165.2
1070,45.7,163.2
1075,45.2,166.5
1080,44.7,165.8
1085,44.1,166.3
1090,43.7,167.6
1095,43.2,168.9
1100,42.5,166.9
1105,42.4,170.0
1110,41.9,166.6
1115,41.3,165.7
1120,40.9,167.7
1125,40.5,168.8
1130,40.0,165.7
1135,39.5,169.2
1140,39.0,169.7
1145,38.5,166.6
1150,38.1,164.4
1155,37.7,162.3
1160,37.2,166.8
1165,36.7,165.3
1170,36.3,162.7
1175,35.7,162.1
1180,35.3,160.1
1185,34.8,157.9
1190,34.4,158.5
1195,34.0,158.6
1200,33.5,154.4
1205,33.1,153.8
1210,32.5,152.7
1215,32.1,150.6
1220,31.8,147.9
1225,31.4,146.6
1230,30.9,142.5
1235,30.5,140.1
1240,30.2,138.0
1245,29.7,135.9
1250,29.4,137.8
1255,28.9,135.1
1260,28.6,133.6
1265,28.3,131.7
1270,27.9,128.9
1275,27.6,129.3
1280,27.3,123.3
1285,27.0,120.5
1290,26.6,119.5
1295,26.3,117.5
1300,26.0,116.3
1305,25.7,113.0
1310,25.3,114.3
1315,25.1,110.7
1320,24.7,106.2
1325,24.5,103.2
1330,24.3,104.0
1335,24.0,98.3
1340,23.7,94.5
1345,23.5,92.2
1350,23.3,90.6
1355,23.1,86.3
1360,22.9,86.6
1365,22.7,84.7
1370,22.4,82.7
1375,22.3,83.4
1380,22.2,80.7
1385,21.9,74.8
1390,21.8,71.1
1395,21.7,67.2
1400,21.6,65.7
1405,21.4,64.8
1410,21.3,64.4
1415,21.1,63.0
1420,21.1,61.7
1425,21.0,58.5
1430,20.9,55.1
1435,20.7,52.5
1440,20.7,49.8
1445,20.6,48.8
1450,20.6,48.1
1455,20.5,46.0
1460,20.4,45.2
1465,20.2,44.0
1470,20.2,44.9
1475,20.2,47.5
1480,20.1,44.7
1485,20.0,44.4
1490,19.9,45.4
1495,19.9,45.4
1500,19.8,43.5
1505,19.8,43.6
1510,19.7,42.9
1515,19.6,42.7
1520,19.6,43.4
1525,19.5,43.3
1530,19.4,42.5
1535,19.3,43.4
1540,19.3,41.6
1545,19.2,43.3
1550,19.2,42.8
1555,19.1,45.2
1560,19.0,45.2
1565,18.9,42.7
1570,18.9,42.8
1575,18.9,42.0
1580,18.8,43.7
1585,18.7,44.8
1590,18.7,45.1
1595,18.7,44.7
1600,18.6,44.0
1605,18.5,42.9
1610,18.4,42.9
