Time (s),Mass (g),HRR (kW/m2),TC Top (K),TC 8.6mm (K),TC 17.2mm (K)
0,99.37,7.085980153,305.424,293.65,293.206
1,98.880225,5.00599561,305.673,293.655,293.212
2,97.857658,4.193050152,325.88,293.636,293.187
3,97.268788,3.261668182,365.279,293.671,293.199
4,96.91292,2.699263801,410.152,293.671,293.192
5,96.694671,4.937890154,450.934,293.663,293.192
6,96.469078,3.123439811,463.556,293.664,293.196
7,96.235117,2.309722154,484.751,293.694,293.185
8,96.047033,2.995852015,512.4,293.722,293.189
9,95.66894,3.323890581,535.066,293.717,293.176
10,95.066465,2.335916202,555.305,293.723,293.169
11,93.878089,4.586700798,562.028,293.728,293.17
12,92.292938,9.691537045,573.478,293.758,293.076
13,91.447358,35.5800771,596.093,293.78,293.105
14,91.083343,40.42623043,626.35,293.811,293.201
15,90.728172,87.40956194,652.367,293.829,293.197
16,90.324262,137.2143041,660.643,293.831,293.18
17,89.819905,162.7307671,673.573,293.829,293.191
18,89.371583,179.870921,688.798,293.699,293.19
19,89.008919,189.1000247,703.719,293.842,293.207
20,88.603838,200.8806407,718.764,293.86,293.211
21,88.168996,209.1966114,724.153,293.799,293.206
22,87.71892,213.6527254,734.819,294.002,293.152
23,87.338734,211.2882001,746.795,294.158,293.136
24,87.106928,210.785726,759.265,294.246,293.096
25,86.894013,208.3380825,773.198,294.32,293.039
26,86.742586,200.0989771,777.985,294.344,293.023
27,86.602118,192.0530839,781.994,294.483,293.032
28,86.465204,180.9579623,787.001,294.646,293.047
29,86.317927,178.7864928,792.967,294.877,293.063
30,86.186752,170.6243984,800.099,295.138,293.093
31,86.125361,167.8991595,809.021,295.495,293.167
32,86.111604,161.1969389,812.305,295.634,293.199
33,86.032208,148.2636029,815.41,295.775,293.195
34,85.924247,137.848577,822.626,296.077,293.196
35,85.825415,135.2630161,839.368,296.603,293.194
36,85.745439,133.5719546,845.601,297.149,293.154
37,85.6524,128.781698,846.251,297.419,293.132
38,85.584998,123.0084896,849.66,297.644,293.123
39,85.575089,121.2502894,854.626,298.081,293.072
40,85.518777,124.2343565,858.076,298.642,293.041
41,85.442933,119.148543,862.192,299.283,293.015
42,85.356287,115.8197571,863.747,299.495,293.004
43,85.219232,118.6080374,867.201,299.888,292.975
44,85.08847,117.845676,877.247,300.743,292.986
45,84.974888,114.3475169,883.694,301.393,292.967
46,84.880998,115.3203288,884.519,302.148,292.955
47,84.813952,112.7465478,884.484,302.531,292.959
48,84.725637,108.9967831,884.858,302.896,292.94
49,84.668761,112.2079309,890.919,303.619,292.953
50,84.644248,114.9404963,897.528,304.365,292.955
51,84.601501,111.8268209,902.384,305.195,292.963
52,84.499959,108.3732224,903.831,305.505,292.972
53,84.457873,108.0630398,905.486,306.101,292.991
54,84.424641,105.0930708,909.725,306.913,292.981
55,84.320006,104.1301019,912.954,307.824,293.028
56,84.172662,105.3843123,914.633,308.704,293.014
57,84.045275,102.136131,915.153,308.97,292.991
58,83.949779,101.6691297,919.541,309.509,292.961
59,83.924219,103.0588268,923.092,310.444,293.005
60,83.907791,103.023607,927.761,311.346,293.055
61,83.861384,101.4020619,929.357,312.275,293.092
62,83.819911,102.3161537,928.658,312.623,293.11
63,83.757182,100.9968753,932.37,313.149,293.103
64,83.683439,102.6697357,936.862,314.143,293.134
65,83.635677,100.1378022,937.082,315.069,293.177
66,83.615014,98.25431189,939.28,315.996,293.18
67,83.576855,97.32410068,937.76,316.957,293.256
68,83.529585,97.63507761,936.137,317.284,293.299
69,83.461886,97.4401298,936.516,317.909,293.234
70,83.412185,95.04445294,948.236,318.868,293.252
71,83.337555,94.09847091,953.637,319.775,293.263
72,83.269417,93.55971374,950.421,320.706,293.292
73,83.211344,90.66998962,948.936,321.025,293.311
74,83.149545,91.79378346,945.297,321.624,293.282
75,83.124403,95.75799073,943.897,322.562,293.317
76,83.09478,97.95515895,944.412,323.47,293.34
77,83.041835,94.04768219,947.81,324.409,293.345
78,82.969241,93.73744822,949.78,324.741,293.35
79,82.92764,94.5987854,951.116,325.4,293.368
80,82.910342,92.94374482,955.144,326.358,293.404
81,82.840974,93.12500269,955.239,327.237,293.433
82,82.747277,91.85568967,952.612,328.208,293.457
83,82.723464,91.08711179,951.696,328.562,293.465
84,82.732922,92.85698848,951.347,329.168,293.516
85,82.709618,93.78368717,959.882,330.138,293.544
86,82.653514,92.7274357,965.503,331.256,293.545
87,82.631324,90.63599273,963.286,332.071,293.595
88,82.627047,85.7039708,961.713,332.293,293.622
89,82.608731,82.04556589,965.971,332.963,293.599
90,82.550879,86.02356811,966.831,334.062,293.613
91,82.445591,86.84727107,968.954,334.798,293.652
92,82.373026,88.7864024,973.668,335.267,293.691
93,82.345617,89.47652513,970.893,336.116,293.702
94,82.359796,86.04658798,971.081,337.146,293.738
95,82.368084,85.16588554,971.95,337.735,293.781
96,82.311118,86.64930862,976.063,338.682,293.832
97,82.219595,84.86014219,975.349,339.671,293.858
98,82.137083,83.37201163,973.74,340.025,293.864
99,82.079175,82.3464824,973.839,340.67,293.859
100,82.030867,83.58180897,969.067,341.653,293.856
101,81.983409,85.16476392,974.091,342.618,293.913
102,81.914736,82.54123719,977.334,343.824,294.001
103,81.87721,80.30333064,971.637,344.752,294.022
104,81.772677,80.97951845,969.365,344.99,294.019
105,81.709433,80.94802855,968.717,345.54,294.081
106,81.70435,81.79058124,967.537,346.458,294.142
107,81.679051,83.59430198,970.099,347.413,294.165
108,81.628907,82.53005307,971.934,348.347,294.236
109,81.597258,81.35282545,971.837,348.753,294.281
110,81.573336,83.3875924,973.925,349.259,294.278
111,81.518868,80.98046722,979.764,350.11,294.318
112,81.453558,79.84949625,979.505,351.036,294.372
113,81.419876,82.98799709,977.237,351.933,294.401
114,81.388818,82.76684307,977.199,352.236,294.409
115,81.32008,80.5424058,977.281,352.805,294.485
116,81.251226,80.40330673,974.4,353.663,294.572
117,81.209199,80.87073552,972.925,354.47,294.627
118,81.153046,79.55533426,978.431,355.319,294.699
119,81.126785,80.43419715,981.827,355.639,294.731
120,81.108601,80.03188599,980.471,356.216,294.747
121,81.057705,81.05261443,979.78,357.101,294.836
122,80.949007,78.96658019,979.23,358.091,294.918
123,80.876561,80.32764817,991.461,358.966,295.024
124,80.843274,79.84099543,998.754,359.195,295.072
125,80.826712,79.74775812,993.635,359.666,295.039
126,80.788034,80.18856009,989.39,360.444,295.12
127,80.748491,81.5342291,991.27,361.43,295.196
128,80.711054,80.79227575,990.615,362.413,295.283
129,80.620026,82.4954644,989.661,362.732,295.328
130,80.509728,82.45838117,989.344,363.262,295.376
131,80.437384,80.94912011,985.171,364.113,295.434
132,80.379932,79.84977372,983.425,364.957,295.502
133,80.287144,78.14791603,985.045,365.773,295.59
134,80.18199,76.60924175,985.722,366.053,295.622
135,80.165607,77.30998213,984.11,366.59,295.684
136,80.131961,78.06227879,981.435,367.343,295.801
137,80.056306,77.401235,979.355,368.049,295.885
138,80.015113,76.80837688,991.064,368.821,295.965
139,79.954988,78.54759029,990.408,369.609,296.044
140,79.912196,77.308389,985.059,369.925,296.072
141,79.820781,77.46226234,989.922,370.405,296.163
142,79.721208,78.30185606,990.591,371.082,296.282
143,79.678481,80.17729685,986.334,371.777,296.36
144,79.639949,78.532599,986.498,372.671,296.435
145,79.541398,79.69073131,993.688,373.231,296.468
146,79.416535,81.82819039,997.947,373.777,296.587
147,79.422447,80.41760822,1001.664,374.58,296.732
148,79.417218,78.85690156,999.623,375.387,296.812
149,79.350234,79.92199584,994.555,376.337,296.974
150,79.28884,80.73603011,992.967,376.705,297.064
151,79.272632,82.71762213,991.027,377.25,297.087
152,79.204046,79.72330974,991.404,378.073,297.172
153,79.161254,77.96500448,990.433,378.944,297.311
154,79.160391,78.07829975,987.992,379.735,297.41
155,79.124534,78.84296939,986.987,380.058,297.441
156,79.057965,77.10630004,983.699,380.599,297.591
157,79.001262,77.50619219,989.616,381.433,297.729
158,78.939345,77.8952759,994.392,382.298,297.837
159,78.887613,75.89646704,992.212,383.154,297.963
160,78.807894,75.68707932,991.225,383.441,298.005
161,78.716642,77.86074372,990.791,383.958,298.11
162,78.663822,77.38199991,990.984,384.709,298.256
163,78.620439,77.64584695,990.663,385.51,298.389
164,78.620064,77.39798641,994.281,386.27,298.509
165,78.617692,76.77381174,997.132,386.602,298.563
166,78.613581,75.77500079,1001.774,387.015,298.688
167,78.643884,76.2660814,1001.256,387.749,298.869
168,78.699485,78.30111385,1000.57,388.332,299.006
169,78.744555,78.39125888,1000.84,389.057,299.183
170,78.720913,77.21222442,999.312,389.556,299.298
171,78.678034,78.4962174,997.002,390.074,299.362
172,78.624417,77.81527024,995.604,390.763,299.475
173,78.555443,77.81062863,1004.617,391.507,299.654
174,78.483222,78.39052126,1006.382,392.242,299.809
175,78.442349,79.36614092,1007.256,392.945,299.958
176,78.408883,78.52371366,1009.733,393.265,300.034
177,78.368318,79.45664064,1002.861,393.712,300.169
178,78.326515,79.73913542,998.871,394.45,300.342
179,78.218911,78.68679388,1005.453,395.187,300.509
180,78.13906,78.02238833,1009.25,395.997,300.706
181,78.128156,78.61744027,1008.915,396.306,300.779
182,78.085434,76.02067338,1005.917,396.726,300.875
183,78.008426,76.31865048,1006.506,397.468,301.021
184,77.952682,78.246978,1005.878,398.29,301.205
185,77.903977,78.49986986,1003.45,399.088,301.442
186,77.833803,78.96133596,1003.175,399.37,301.53
187,77.780154,79.66738077,1004.466,399.789,301.637
188,77.70617,78.21641564,1006.557,400.435,301.837
189,77.635395,76.42953235,1008.667,401.249,302.009
190,77.602942,77.17117094,1006.851,402.184,302.21
191,77.565703,76.66970906,1005.218,402.493,302.291
192,77.532993,75.65759024,1017.768,402.978,302.427
193,77.489749,76.81314597,1022.557,403.696,302.624
194,77.431938,78.22491695,1016.558,404.458,302.837
195,77.395146,76.39569814,1017.395,405.237,303.02
196,77.345753,77.21828601,1020.731,405.576,303.086
197,77.245673,78.20035176,1012.104,405.986,303.233
198,77.195049,78.53588919,1007.99,406.799,303.465
199,77.196112,78.56438924,1017.477,407.583,303.66
200,77.18866,78.89193538,1016.659,408.368,303.887
201,77.139072,78.63746022,1012.7,408.731,303.996
202,77.046615,75.44495518,1015.787,409.13,304.094
203,76.986545,77.8435838,1013.704,409.91,304.315
204,76.920339,78.49037005,1008.02,410.77,304.549
205,76.880287,76.91675702,1007.884,411.538,304.767
206,76.833683,76.14136671,1007.588,412.25,305.012
207,76.760622,75.33985136,1006.446,412.589,305.134
208,76.679569,74.0239979,1008.265,413.179,305.243
209,76.626357,75.42675307,1014.508,413.924,305.452
210,76.586308,78.29526374,1013.963,414.694,305.701
211,76.575319,77.84473947,1011.934,415.361,305.91
212,76.527226,77.86987079,1012.737,415.81,306.063
213,76.44914,78.02300918,1013.113,415.92,306.09
214,76.394067,76.4617297,1018.739,417.059,306.383
215,76.311162,77.13707476,1021.834,417.911,306.635
216,76.21861,77.52502063,1031.724,418.718,306.9
217,76.167727,75.87764397,1038.806,419.043,307.01
218,76.119663,77.22681396,1032.543,419.529,307.162
219,76.051243,78.66846597,1032.514,420.385,307.404
220,76.012533,78.50910465,1030.207,421.225,307.64
221,75.993632,76.0414133,1026.204,422.121,307.879
222,75.961305,75.95426522,1025.992,422.452,307.961
223,75.885329,75.22318714,1028.842,422.901,308.119
224,75.797188,74.66099393,1026.516,423.758,308.402
225,75.768919,77.14996076,1025.063,424.644,308.576
226,75.729353,77.24293697,1028.772,425.508,308.856
227,75.648662,76.00039784,1030.34,425.86,309.026
228,75.552295,78.10636099,1031.305,426.357,309.177
229,75.472237,77.3858281,1034.409,427.274,309.459
230,75.405997,76.25795645,1037.455,428.187,309.744
231,75.361358,75.40882975,1029.582,429.074,309.989
232,75.351852,76.46117945,1023.433,429.466,310.088
233,75.327054,76.68076902,1023.737,430.014,310.261
234,75.271807,77.55598717,1016.276,430.915,310.526
235,75.209189,79.29973847,1014.216,431.778,310.802
236,75.168764,79.16396003,1020.189,432.684,311.055
237,75.164566,77.97124397,1023.217,433.088,311.147
238,75.16891,78.3060092,1026.814,433.474,311.341
239,75.128774,76.52658007,1022.307,434.502,311.671
240,75.08943,75.0079342,1024.771,435.535,311.915
241,75.051774,77.75755736,1036.268,436.443,312.198
242,74.955424,78.46361766,1042.559,436.934,312.474
243,74.864532,77.10820886,1031.627,437.461,312.563
244,74.772743,77.56190712,1022.751,438.579,312.723
245,74.675262,79.36062019,1022.243,439.521,313.045
246,74.601482,77.98658881,1029.641,440.412,313.312
247,74.554539,76.61313343,1036.462,441.432,313.59
248,74.527046,76.5147645,1037.623,441.858,313.732
249,74.475758,76.30497249,1033.873,442.404,313.875
250,74.456536,77.12438948,1031.97,443.466,314.171
251,74.423508,78.99046358,1026.27,444.482,314.445
252,74.340038,76.40637088,1022.459,445.507,314.73
253,74.252504,74.79481329,1023.501,445.977,314.869
254,74.161613,74.91001155,1029.118,446.488,315.014
255,74.057334,75.53712812,1034.487,447.506,315.32
256,74.010697,75.99015567,1037.771,448.543,315.613
257,74.01369,78.00307099,1033.33,449.59,315.935
258,73.963045,77.22394992,1027.156,450.071,316.106
259,73.932296,77.93150045,1032.31,450.637,316.293
260,73.919226,75.8751502,1036.703,451.7,316.61
261,73.883038,73.02474444,1030.998,452.792,316.882
262,73.847459,73.94443994,1034.371,453.78,317.199
263,73.795265,75.52711792,1038.672,454.171,317.347
264,73.716591,75.14193358,1030.585,454.744,317.503
265,73.64355,75.46346156,1023.222,455.787,317.833
266,73.581764,77.33814917,1026.91,456.797,318.13
267,73.546228,78.55209264,1026.773,458.036,318.459
268,73.508271,76.70647681,1024.832,458.535,318.594
269,73.440625,75.68146665,1033.306,458.966,318.793
270,73.384372,74.31669954,1041.608,459.889,319.136
271,73.326983,71.91779523,1041.279,460.89,319.468
272,73.277795,72.04550214,1042.55,461.89,319.77
273,73.246082,72.59626578,1044.072,462.307,319.888
274,73.233608,73.08682021,1036.753,462.868,320.085
275,73.212527,74.88423364,1034.87,463.869,320.433
276,73.191879,76.23483372,1037.278,464.837,320.734
277,73.169126,76.24469822,1033.562,465.781,321.029
278,73.157349,77.15101786,1029.788,466.815,321.391
279,73.129428,74.93534958,1037.649,467.288,321.562
280,73.088133,73.10669317,1039.981,467.825,321.747
281,73.127769,73.97467311,1034.113,468.809,322.078
282,73.225078,75.52570363,1028.401,469.879,322.437
283,73.243287,72.98869134,1027.894,470.902,322.771
284,73.189279,73.01403256,1029.511,471.35,322.912
285,73.174454,75.56709452,1027.872,471.928,323.135
286,73.077502,76.9758096,1029.345,472.949,323.488
287,72.996645,76.83074705,1030.777,473.791,323.81
288,72.986554,76.15325305,1036.311,474.784,324.187
289,72.918665,75.55494607,1042.033,475.41,324.402
290,72.836494,77.14484749,1038.22,476.04,324.618
291,72.838498,77.30327496,1036.23,476.981,324.927
292,72.861373,76.50795431,1037.201,477.992,325.249
293,72.809911,77.68790028,1032.734,479.224,325.612
294,72.653433,77.47266024,1028.993,479.774,325.765
295,72.502313,76.89063679,1034.882,480.176,325.958
296,72.437057,78.05166707,1036.712,481.048,326.322
297,72.424506,77.30550567,1037.115,482.091,326.674
298,72.41429,76.3663629,1034.365,483.099,327.012
299,72.377244,74.88228212,1031.473,483.51,327.159
300,72.274246,72.95368161,1038.495,484.014,327.38
301,72.184232,73.37047404,1041.842,485.034,327.779
302,72.134294,73.62168744,1040.515,486.04,328.156
303,71.976373,75.86195579,1040.865,487.088,328.531
304,71.973987,74.06666739,1039.833,487.567,328.686
305,71.951775,74.29194689,1037.482,488.149,328.921
306,71.91082,74.95743225,1043.043,489.11,329.293
307,71.834761,73.63711445,1034.283,490.11,329.687
308,71.776928,73.85807732,1037.424,491.071,330.016
309,71.728918,74.75297079,1047.953,491.542,330.155
310,71.644418,74.83713102,1048.921,492.041,330.391
311,71.586103,77.99144401,1049.277,493.033,330.833
312,71.574706,77.88018311,1043.907,494.068,331.236
313,71.546762,73.76516012,1039.275,494.84,331.526
314,71.50804,75.17407557,1037.364,495.476,331.772
315,71.44294,75.95603329,1043.282,496.5,332.207
316,71.409276,73.30282795,1044.681,497.016,332.411
317,71.382239,73.99030846,1053.059,497.997,332.821
318,71.315083,75.83934872,1042.226,498.981,333.167
319,71.246921,74.84239251,1035.001,499.933,333.541
320,71.19715,75.60455313,1039.232,500.411,333.768
321,71.188867,77.11711402,1039.093,500.897,333.987
322,71.183146,77.45288657,1036.403,501.927,334.421
323,71.087134,76.03896189,1039.094,502.943,334.817
324,70.96135,74.22960947,1047.733,503.936,335.2
325,70.899854,74.68251569,1051.773,504.445,335.395
326,70.879052,76.51421398,1045.928,504.996,335.62
327,70.848496,78.13411021,1047.033,505.97,336.018
328,70.805836,76.61357093,1048.867,506.967,336.408
329,70.740013,77.38306994,1045.109,508.033,336.815
330,70.685948,77.63851139,1044.088,508.44,336.971
331,70.687688,76.8347494,1037.12,508.82,337.167
332,70.699249,76.59061012,1039.533,509.84,337.579
333,70.681206,77.30939056,1053.024,510.956,338.001
334,70.650978,75.69828729,1048.721,511.956,338.402
335,70.702509,75.85648882,1042.203,512.394,338.574
336,70.810553,77.47705646,1044.516,512.999,338.807
337,70.864437,74.89112943,1059.445,513.999,339.2
338,70.786352,72.82006329,1067.791,514.941,339.6
339,70.674381,75.06399984,1054.955,516.004,340.029
340,70.584844,75.28242152,1046.374,517.167,340.408
341,70.476813,74.4929781,1042.063,517.797,340.598
342,70.375779,74.23984502,1035.591,518.202,340.864
343,70.31666,72.73274864,1037.391,519.11,341.327
344,70.261106,73.43035051,1047.713,519.995,341.706
345,70.220482,75.65933835,1055.043,520.436,342.078
346,70.175031,74.61109269,1055.301,521.056,342.283
347,70.113956,75.40632618,1048.758,522.117,342.532
348,70.027959,76.45116831,1045.084,523.042,342.921
349,69.970853,75.89188358,1053.965,523.983,343.311
350,69.928587,74.41954727,1060.539,524.925,343.684
351,69.867074,74.71415576,1060.829,525.335,343.841
352,69.775859,75.33205809,1048.872,525.825,344.081
353,69.686496,75.45580142,1051.134,526.782,344.52
354,69.615361,77.00206232,1054.955,527.778,344.94
355,69.572389,75.0824302,1051.067,528.7,345.337
356,69.545934,72.61433768,1052.972,529.113,345.519
357,69.480076,73.0567075,1045.972,529.727,345.753
358,69.423356,74.05464008,1035.088,530.669,346.153
359,69.366277,72.86674222,1032.758,531.61,346.569
360,69.303044,74.21579898,1043.665,532.578,346.968
361,69.235652,75.73740179,1050.349,532.968,347.124
362,69.173567,74.7473749,1051.337,533.454,347.344
363,69.133219,75.9628073,1048.417,534.455,347.813
364,69.067895,78.28923183,1049.366,535.336,348.224
365,69.013954,77.07094824,1051.253,536.248,348.629
366,68.984986,76.23247916,1049.854,536.671,348.815
367,68.939102,75.34567933,1061.104,537.147,349.015
368,68.870192,74.69449565,1058.84,538.019,349.383
369,68.837954,75.13721983,1047.403,538.957,349.793
370,68.813511,77.02218666,1053.603,539.91,350.199
371,68.734279,77.53387305,1056.324,540.337,350.372
372,68.649307,78.3156954,1051.409,540.821,350.541
373,68.573576,77.41646949,1040.657,541.805,350.976
374,68.525867,75.51127032,1045.206,542.703,351.405
375,68.461746,75.23981376,1061.341,543.552,351.781
376,68.343159,76.90448646,1070.102,543.986,351.974
377,68.271868,78.41646945,1065.592,544.547,352.197
378,68.247658,77.89661778,1059.205,545.447,352.576
379,68.181054,77.460455,1052.042,546.345,352.966
380,68.096326,77.25085684,1053.548,547.234,353.353
381,68.054577,78.57562973,1055.486,548.148,353.722
382,68.006497,79.95728679,1052.28,548.59,353.884
383,67.949998,79.43006349,1060.069,549.059,354.116
384,67.917565,77.07642002,1057.378,549.933,354.516
385,67.876728,77.13066039,1060.094,550.839,354.884
386,67.715368,79.47207846,1060.916,551.715,355.261
387,67.661318,77.66310129,1053.41,552.098,355.436
388,67.5962,77.93468719,1056.815,552.588,355.639
389,67.513365,76.59284404,1059.826,553.476,356.034
390,67.451652,75.8537951,1073.702,554.364,356.413
391,67.427975,76.89903177,1073.474,555.188,356.773
392,67.38795,76.24967559,1063.315,555.619,356.98
393,67.409929,75.66061016,1057.797,556.104,357.178
394,67.439082,78.54678965,1056.637,557.022,357.527
395,67.428007,82.95943983,1062.909,557.882,357.899
396,67.436373,80.49488081,1065.893,558.485,358.207
397,67.488806,77.16606556,1065.71,559.033,358.445
398,67.606029,78.74203288,1068.242,559.433,358.854
399,67.630763,77.10642701,1064.467,560.375,359.004
