Time (s),Mass (g),HRR (kW/m2),TC Top (K),TC back 1 (K),TC back 2 (K)
0,95.96,4.183563223,307.092,293.294,293.752
1,95.622567,3.184990914,307.441,293.274,293.765
2,95.267702,4.806469366,307.862,293.284,293.765
3,95.163361,3.374323722,308.127,293.293,293.763
4,95.087899,1.764134868,308.435,293.29,293.767
5,95.008059,2.194928912,322.878,293.288,293.784
6,94.988103,1.321559942,364.17,293.316,293.796
7,95.014627,-0.094139141,414.222,293.343,293.804
8,95.040056,1.338405255,452.528,293.376,293.802
9,95.03799,2.845206431,468.483,293.399,293.796
10,95.035786,0.893278641,484.996,293.406,293.814
11,95.033508,0.564241301,511.045,293.411,293.811
12,95.02229,0.934375317,532.125,293.443,293.807
13,95.006374,0.5905473,549.695,293.485,293.802
14,95.011271,-0.208866028,555.884,293.495,293.794
15,95.029315,11.51071579,564.711,293.503,293.814
16,94.951686,52.02486299,580.067,293.545,293.84
17,94.85914,125.8150308,593.7,293.579,293.822
18,94.769448,179.0936949,628.508,293.65,293.834
19,94.605686,180.4600247,647.078,293.693,293.851
20,94.425749,189.2840996,666.484,293.683,293.835
21,94.283939,214.7668563,697.587,293.768,293.859
22,94.120175,234.2154211,720.691,293.85,293.832
23,93.976693,231.5552056,746.961,293.905,293.81
24,93.84183,227.8608024,759.667,293.93,293.815
25,93.678573,214.3613886,780.045,293.981,293.858
26,93.566258,194.4300295,817.435,294.087,293.864
27,93.491515,181.0068732,842.89,294.254,293.82
28,93.385292,168.6197851,861.672,294.474,293.867
29,93.288415,166.4710458,870.577,294.576,293.923
30,93.162424,164.7181943,865.499,294.668,294.007
31,92.980501,152.273524,860.205,294.847,294.07
32,92.93277,139.8248874,856.572,295.061,294.077
33,92.914271,134.1315246,851.815,295.385,294.066
34,92.851382,132.3361585,849.659,295.749,294.094
35,92.782411,132.0996357,849.571,295.892,294.121
36,92.700048,124.7530036,850.66,296.048,294.138
37,92.663087,117.2759775,853.929,296.349,294.16
38,92.569233,119.0686516,871.357,296.953,294.11
39,92.497015,118.2988253,879.445,297.175,294.083
40,92.444783,115.6978502,885.568,297.435,294.108
41,92.361087,118.2512035,892.521,297.888,294.138
42,92.279127,114.9422492,893.347,298.478,294.188
43,92.227524,113.9444106,889.539,299.048,294.199
44,92.170078,113.6504841,900.448,299.676,294.224
45,92.099785,110.1837171,910.51,299.969,294.254
46,92.026109,108.7028664,914.96,300.34,294.265
47,91.953906,112.3314465,934.469,301.061,294.269
48,91.893648,113.1815403,952.815,301.818,294.298
49,91.817481,112.3036103,950.626,302.586,294.335
50,91.734539,110.9285871,943.721,302.942,294.343
51,91.68306,109.542229,940.696,303.381,294.374
52,91.63735,104.6431717,949.207,304.207,294.403
53,91.540377,101.5202802,969.393,305.138,294.432
54,91.478493,102.0485083,984.104,305.978,294.492
55,91.458872,99.43065594,990.436,306.362,294.525
56,91.398193,98.50188185,991.803,306.897,294.538
57,91.285202,100.5651086,989.701,307.842,294.548
58,91.205176,100.2982538,983.875,308.808,294.54
59,91.171797,102.3704499,985.264,309.753,294.569
60,91.094667,101.5066385,988.708,310.238,294.6
61,91.003563,100.732184,990.959,310.823,294.581
62,90.942891,99.67028796,992.147,311.801,294.568
63,90.910564,98.9180263,986.821,312.771,294.596
64,90.845895,99.79380022,989.706,313.804,294.607
65,90.761559,96.17371708,995.233,314.247,294.599
66,90.679266,94.05224424,993.179,314.865,294.682
67,90.615857,96.10432958,993.548,315.9,294.733
68,90.574089,94.65918038,993.694,316.981,294.742
69,90.530859,94.70940356,988.235,318.143,294.79
70,90.422995,96.59919541,985.261,318.633,294.81
71,90.340633,95.25666133,979.939,319.285,294.837
72,90.280513,92.00022387,972.933,320.415,294.881
73,90.225081,92.67704758,973.188,321.522,294.924
74,90.173505,94.71243996,983.051,322.622,294.96
75,90.106709,95.61731361,986.409,323.792,295.019
76,90.046455,97.19095637,983.413,324.322,295.058
77,89.972912,96.55686754,980.04,324.921,295.041
78,89.914516,94.34641223,978.275,326.016,295.04
79,89.841868,94.56380001,976.265,327.195,295.042
80,89.781014,93.07801111,972.616,328.419,295.065
81,89.732675,89.52209992,972.279,328.932,295.094
82,89.684627,89.30085759,970.819,329.536,295.103
83,89.608593,88.48257802,974.461,330.718,295.154
84,89.535989,87.40373381,978.179,331.869,295.187
85,89.483758,85.87661345,973.01,332.993,295.246
86,89.472374,85.28034685,968.99,333.47,295.286
87,89.44059,84.38425068,966.075,334.019,295.297
88,89.333113,83.16044714,967.78,335.176,295.342
89,89.231825,84.30829078,971.006,336.355,295.393
90,89.173263,84.951897,973.057,337.502,295.426
91,89.12447,83.20445633,975.218,337.99,295.438
92,89.083559,85.61142192,977.643,338.621,295.485
93,89.045205,85.74463248,976.243,339.799,295.597
94,88.997083,83.82645728,983.365,340.878,295.657
95,88.923699,86.51150554,999.246,341.991,295.76
96,88.836923,88.48620115,1006.826,342.57,295.856
97,88.811937,86.10902414,998.594,343.149,295.861
98,88.791332,86.25021272,986.105,344.396,295.934
99,88.734237,85.30221663,980.856,345.53,296
100,88.677796,84.92545501,981.911,346.658,296.058
101,88.5975,84.64159747,984.561,347.236,296.103
102,88.50429,86.21933532,981.808,347.817,296.157
103,88.438856,86.33861029,977.508,348.957,296.235
104,88.399054,86.46263718,981.989,350.222,296.297
105,88.312771,86.63171042,991.939,351.463,296.359
106,88.256554,87.75813817,995.325,351.937,296.382
107,88.243556,86.32844556,1002.698,352.648,296.451
108,88.185178,86.76811817,1005.001,353.745,296.563
109,88.120513,87.32564209,998.716,354.911,296.65
110,88.088308,85.31683937,996.357,356.206,296.74
111,88.05498,85.08433962,1002.282,357.386,296.811
112,87.975559,84.50607549,1005.931,357.847,296.832
113,87.913435,83.46353572,1001.441,358.548,296.917
114,87.867283,84.88052981,1003.979,359.747,296.988
115,87.815702,85.25944562,1005.935,360.883,297.054
116,87.752019,83.22697829,1005.129,362.082,297.184
117,87.672193,82.62166754,1005.742,362.596,297.248
118,87.59636,85.04413107,998.981,363.253,297.271
119,87.554466,85.52226196,994.463,364.491,297.399
120,87.531422,84.97377737,1000.902,365.665,297.534
121,87.481935,85.80446096,1007.288,366.825,297.668
122,87.443879,84.58172503,1008.974,367.403,297.752
123,87.403086,83.27029996,1015.261,368.025,297.824
124,87.337731,84.59394941,1017.913,369.232,297.957
125,87.272974,85.02158479,1010.719,370.559,298.098
126,87.202963,87.94187474,1018.62,371.888,298.241
127,87.112377,89.21896801,1026.979,372.428,298.3
128,87.045534,86.93542255,1023.081,373.219,298.419
129,87.016495,86.05039166,1019.725,374.556,298.554
130,86.973121,87.38810729,1013.467,375.915,298.682
131,86.93616,86.19023933,1007.685,377.24,298.816
132,86.899115,83.08773006,1006.921,377.845,298.864
133,86.843347,84.41155316,1007.117,378.522,298.949
134,86.782102,85.50887708,1013.37,379.705,299.115
135,86.711671,84.42343952,1018.137,380.814,299.231
136,86.658249,84.73222375,1018.763,381.898,299.394
137,86.618896,85.07160164,1019.75,382.396,299.517
138,86.545397,84.83850578,1014.696,383.049,299.584
139,86.446819,84.1458277,1010.28,384.188,299.733
140,86.390404,83.50428547,1007.476,385.341,299.886
141,86.362877,81.82250293,1002.509,386.409,300.057
142,86.303027,83.95233281,1000.412,386.816,300.135
143,86.201592,86.85361339,998.937,387.404,300.254
144,86.13752,85.61868476,997.592,388.431,300.408
145,86.140016,83.69209767,1002.838,389.399,300.578
146,86.104048,83.7975622,1011.844,390.334,300.737
147,85.971497,83.24335376,1019.755,391.379,300.927
148,85.921262,82.57517502,1022.533,391.841,301.035
149,85.925553,82.59785958,1015.21,392.363,301.122
150,85.905798,82.99624926,1011.56,393.397,301.29
151,85.825238,81.11685257,1014.432,394.455,301.49
152,85.755755,80.69039982,1011.739,395.483,301.683
153,85.731083,83.63741467,1009.141,395.92,301.758
154,85.685841,83.02000127,1010.343,396.465,301.886
155,85.627796,82.20245726,1011.996,397.484,302.105
156,85.545987,82.96481347,1012.736,398.571,302.304
157,85.503475,80.39568147,1014.365,399.754,302.555
158,85.468911,79.32351779,1015.383,400.251,302.674
159,85.408457,82.7837341,1017.188,400.828,302.733
160,85.391528,83.22067309,1021.187,401.871,302.919
161,85.356531,81.92267362,1023.482,403.028,303.147
162,85.289198,83.16059598,1033.604,404.22,303.335
163,85.212269,85.4219824,1042.46,404.729,303.425
164,85.161778,83.76837645,1038.821,405.389,303.538
165,85.118038,82.9242381,1039.318,406.559,303.719
166,85.050393,82.65364845,1036.918,407.743,303.931
167,84.946879,81.81524388,1031.079,408.88,304.143
168,84.854331,80.74998577,1029.837,409.416,304.23
169,84.770443,81.69128745,1029.451,410.069,304.344
170,84.736431,82.08507304,1028.006,411.289,304.585
171,84.724052,82.4930568,1029.339,412.487,304.825
172,84.65797,81.49424689,1033.85,413.716,305.074
173,84.611777,79.04757729,1036.059,414.249,305.188
174,84.570456,80.9865032,1032.402,414.873,305.294
175,84.499206,81.18543728,1023.506,416.096,305.528
176,84.436851,79.05591934,1019.217,417.339,305.764
177,84.390154,77.99213599,1020.519,418.524,306.015
178,84.368363,79.54072368,1021.403,419.155,306.17
179,84.344611,79.12942057,1021.349,419.772,306.291
180,84.287449,78.63462609,1029.033,421.049,306.546
181,84.207151,80.12654422,1037.005,422.396,306.82
182,84.15993,78.58617463,1033.608,423.571,307.033
183,84.117327,77.27238076,1029.087,424.841,307.286
184,84.065465,78.69440114,1028.773,425.505,307.441
185,84.018169,78.54602393,1034.964,426.215,307.584
186,83.960321,77.36162311,1040.307,427.28,307.795
187,83.902648,78.63870408,1042.599,428.439,308.025
188,83.825246,77.90077405,1043.78,429.991,308.327
189,83.79739,75.20659294,1042.783,430.578,308.431
190,83.784889,74.82997997,1039.521,431.179,308.569
191,83.710573,76.74592716,1036.871,432.486,308.837
192,83.630957,77.48382326,1040.027,433.766,309.113
193,83.550023,77.40040058,1035.651,435.048,309.383
194,83.494048,78.78141177,1029.223,435.687,309.487
195,83.478519,78.12391821,1023.955,436.39,309.646
196,83.444489,76.83750119,1023.253,437.648,309.918
197,83.39747,77.59163782,1021.977,439.333,310.188
198,83.351545,77.83030905,1022.911,441.165,310.49
199,83.287053,77.08662082,1030.88,441.797,310.64
200,83.24491,75.98280929,1028.745,442.166,310.763
201,83.182111,76.26386028,1032.106,443.223,311.039
202,83.125598,75.18259078,1035.143,444.802,311.32
203,83.086135,72.14025601,1030.608,446.412,311.623
204,83.016601,74.10543717,1028.463,447.026,311.752
205,82.943247,75.28668584,1030.861,447.453,311.889
206,82.909166,73.36314691,1039.928,448.41,312.155
207,82.876659,74.83286614,1045.833,449.539,312.451
208,82.839845,75.66151251,1045.481,450.611,312.759
209,82.805176,72.88368351,1046.938,451.209,312.93
210,82.753374,74.3055098,1046.72,451.854,313.069
211,82.676016,76.65386297,1043.393,452.987,313.355
212,82.615753,75.20350579,1039.33,454.265,313.659
213,82.558219,74.63478711,1039.738,455.648,313.96
214,82.524284,76.43804691,1040.63,456.173,314.086
215,82.495905,75.92006402,1040.183,456.826,314.245
216,82.441807,74.13478161,1038.4,458.033,314.508
217,82.393045,74.01720557,1035.256,459.326,314.811
218,82.324736,74.33488089,1033.418,460.723,315.149
219,82.25624,76.87343598,1034.558,462.116,315.456
220,82.23947,79.84645695,1035.243,462.759,315.605
221,82.212244,78.18918241,1032.272,463.4,315.726
222,82.156242,76.49867623,1024.49,464.867,316.033
223,82.089505,76.31747594,1024.879,466.268,316.345
224,82.035476,74.28495172,1032.085,467.572,316.645
225,81.983024,73.08553927,1035.398,468.255,316.811
226,81.926509,76.70193134,1038.366,468.921,316.952
227,81.874888,78.02556378,1040.102,470.248,317.22
228,81.839297,75.44691332,1040.43,471.68,317.552
229,81.768825,77.21845246,1048.796,473.213,317.895
230,81.688046,78.94060935,1053.57,473.823,317.996
231,81.681816,76.78000916,1052.891,474.485,318.179
232,81.658048,74.28327029,1049.265,475.97,318.525
233,81.601979,72.91586484,1045.48,477.52,318.873
234,81.544809,73.04193312,1044.141,478.861,319.202
235,81.469331,73.46570824,1043.421,479.514,319.352
236,81.424622,74.76616842,1042.063,480.212,319.51
237,81.406747,74.33293925,1035.568,481.744,319.866
238,81.398569,73.55248348,1032.179,483.153,320.187
239,81.386871,74.26587879,1042.351,484.604,320.53
240,81.309706,73.75401601,1050.718,485.299,320.706
241,81.167553,72.65035501,1045.768,486.119,320.899
242,81.087214,74.95100033,1039.226,487.526,321.178
243,81.033714,77.10182087,1046.417,488.991,321.501
244,80.99114,75.20602434,1051.964,490.58,321.842
245,80.98092,76.1813506,1050.219,491.264,321.966
246,80.958989,74.75690147,1047.094,491.978,322.145
247,80.887728,74.15104953,1045.687,493.417,322.465
248,80.805515,76.00234225,1045.38,494.793,322.821
249,80.77634,77.596792,1044.947,496.269,323.21
250,80.759102,75.53416495,1046.191,496.934,323.353
251,80.710167,74.4663599,1046.047,497.699,323.526
252,80.65876,74.00803329,1043.541,499.111,323.864
253,80.611405,71.88024285,1047.325,500.551,324.208
254,80.546802,72.91492121,1056.529,502.004,324.548
255,80.49375,72.86933138,1058.138,503.475,324.888
256,80.44045,71.90131259,1056.904,504.182,325.045
257,80.371781,74.25184268,1052.138,504.882,325.187
258,80.297152,73.99088483,1047.101,506.141,325.469
259,80.250983,72.80835762,1047.313,507.205,325.742
260,80.212435,73.64833372,1057.164,509.806,326.266
261,80.173221,75.43918627,1058.514,510.508,326.461
262,80.153096,73.95145449,1054.736,511.178,326.638
263,80.114473,73.68607802,1052.682,512.418,326.97
264,80.074822,74.98191117,1057.285,513.666,327.306
265,80.040222,73.56674184,1057.434,515.022,327.661
266,79.944835,70.44179936,1053.436,515.71,327.836
267,79.885175,72.37812889,1059.228,516.325,327.978
268,79.857882,73.50850546,1061.818,517.804,328.343
269,79.807782,70.82470032,1049.481,519.213,328.756
270,79.776167,72.20670613,1046.634,520.512,329.12
271,79.75726,73.35284077,1049.69,521.121,329.273
272,79.686455,71.62695332,1049.919,521.713,329.462
273,79.64192,71.62389989,1048.87,523.059,329.863
274,79.609959,70.80276946,1047.361,524.471,330.259
275,79.524456,69.83989807,1050.035,525.73,330.594
276,79.430717,69.74241672,1053.096,526.468,330.769
277,79.398961,71.72873213,1056.688,527.143,330.976
278,79.386408,71.41045932,1053.14,528.518,331.372
279,79.329871,70.26157,1045.023,529.816,331.767
280,79.263284,71.69717889,1048.868,531.074,332.138
281,79.220757,72.49121138,1054.385,531.725,332.309
282,79.190829,72.91762324,1051.622,532.351,332.489
283,79.152841,73.09545209,1052.266,533.542,332.836
284,79.093378,72.43798983,1058.986,534.901,333.257
285,79.041284,71.81636447,1058.473,536.255,333.671
286,78.990802,71.00447785,1055.986,536.89,333.851
287,78.917386,69.61250317,1057.405,537.511,334.042
288,78.889533,70.09213239,1061.088,538.863,334.429
289,78.873154,71.13780469,1060.907,540.107,334.816
290,78.830956,71.0401586,1060.184,541.282,335.199
291,78.744564,69.29963856,1058.157,542.469,335.547
292,78.667935,70.63216377,1055.065,543.067,335.72
293,78.631146,70.80882447,1057.327,543.691,335.919
294,78.580674,69.51352532,1060.611,544.902,336.286
295,78.550379,70.29600195,1062.056,546.108,336.658
296,78.53861,70.19795721,1064.789,547.35,337.071
297,78.491279,68.36836891,1067.691,548.041,337.301
298,78.42008,67.81796006,1069.513,548.639,337.455
299,78.384688,68.41052784,1064.174,549.802,337.816
300,78.341032,68.33513939,1054.008,551.012,338.241
301,78.270867,69.00847226,1051.01,552.284,338.641
302,78.202135,70.77348931,1048.946,552.884,338.824
303,78.160813,69.36147593,1050.383,553.509,339.036
304,78.149288,68.91796235,1055.038,554.723,339.44
305,78.125229,70.36270233,1058.863,555.924,339.838
306,78.053983,69.78342837,1056.793,557.088,340.242
307,77.974497,67.29351499,1054.479,557.744,340.476
308,77.91758,69.21310937,1060.892,558.308,340.668
309,77.868113,69.35186997,1063.854,559.379,341.025
310,77.855099,66.80848792,1057.853,560.585,341.464
311,77.817324,69.11038888,1058.695,561.817,341.901
312,77.759352,72.73666165,1061.454,562.348,342.064
313,77.699483,71.96852706,1061.496,562.994,342.284
314,77.634256,69.35375298,1063.135,564.128,342.649
315,77.595627,68.7416526,1059.349,565.34,343.026
316,77.555039,68.01108057,1053.886,566.573,343.448
317,77.528033,68.57504792,1055.343,567.148,343.657
318,77.488216,71.28410273,1062.038,567.718,343.836
319,77.43273,69.94484701,1063.139,568.884,344.24
320,77.386336,68.398661,1053.464,570.12,344.706
321,77.358885,69.66894341,1049.332,571.305,345.119
322,77.322195,69.75991793,1048.299,571.972,345.333
323,77.261744,67.03606037,1048.599,572.554,345.551
324,77.209576,68.58726368,1050.043,573.675,345.95
325,77.171687,70.07230784,1054.568,574.946,346.384
326,77.122974,69.53888815,1055.945,576.24,346.831
327,77.074049,69.45822656,1055.454,577.454,347.244
328,77.018543,71.91852013,1057.407,578.059,347.447
329,76.96464,69.82682692,1057.306,578.71,347.662
330,76.919837,66.47285868,1059.633,579.899,348.084
331,76.871184,67.37016466,1064.304,581.114,348.542
332,76.810717,70.28007557,1062.58,582.332,348.957
333,76.750356,71.24773043,1057.689,582.973,349.149
334,76.719613,71.39241739,1056.464,583.606,349.388
335,76.7057,71.60779369,1058.091,584.804,349.798
336,76.628201,70.92389392,1063.138,585.986,350.169
337,76.436455,70.65514922,1061.075,587.36,350.598
338,76.242442,71.12017663,1054.919,588.12,350.811
339,76.17087,70.48259042,1052.133,588.697,350.971
340,76.141769,70.46672692,1050.406,590.126,351.443
341,76.093062,72.14055899,1048.737,591.368,351.898
342,76.030802,70.8611948,1047.281,592.612,352.314
343,75.985015,69.46241381,1051.162,593.388,352.566
344,75.963065,69.30476718,1056.603,594.039,352.761
345,75.947434,69.32261406,1059.973,595.276,353.149
346,75.886711,69.0270381,1054.239,596.542,353.595
347,75.800362,69.90909595,1054.602,597.83,354.065
348,75.759779,71.15745917,1058.97,598.409,354.266
349,75.709935,69.07279329,1059.268,599.006,354.483
350,75.680392,67.5879486,1059.917,600.249,354.937
351,75.652964,68.42152464,1058.613,601.447,355.381
352,75.575249,69.0523716,1057.695,602.615,355.803
353,75.524033,67.15270859,1058.145,603.165,355.995
354,75.492751,67.19776595,1058.83,603.817,356.219
355,75.440583,69.60566466,1056.999,605.042,356.642
356,75.401001,70.35560058,1055.522,606.248,357.054
357,75.336238,69.50771165,1055.269,607.457,357.466
358,75.281087,69.87967238,1053.541,608.174,357.892
359,75.289848,69.6799539,1056.955,608.735,358.109
360,75.226949,68.77064492,1056.901,609.942,358.329
361,75.12144,67.36583881,1055.85,611.268,358.793
362,75.047699,69.15666533,1060.303,612.506,359.191
363,75.017749,67.55238583,1059.822,613.787,359.603
364,75.041986,66.43322642,1058.594,614.46,359.81
365,75.016493,68.3024213,1054.464,615.001,360.018
366,74.911288,70.12292985,1047.452,616.185,360.476
367,74.829169,66.64851835,1049.054,617.395,360.916
368,74.768741,67.27424849,1050.875,618.686,361.349
369,74.729951,68.1034546,1045.538,619.316,361.568
370,74.691972,66.48476125,1049.064,619.94,361.834
371,74.650763,66.95903841,1049.489,621.081,362.292
372,74.603331,67.58444671,1049.468,622.157,362.713
373,74.532929,65.25044009,1052.692,623.296,363.19
374,74.467651,64.57892751,1051.501,623.858,363.428
375,74.441978,67.41231579,1054.391,624.303,363.608
376,74.375033,68.87323355,1056.338,625.168,363.993
377,74.303745,68.85815584,1053.08,625.782,364.307
378,74.274658,67.72112368,1055.263,627.03,364.867
379,74.252241,67.90407514,1059.351,627.79,365.201
380,74.217598,68.19257677,1055.748,628.377,365.466
381,74.143821,67.98532217,1058.791,629.532,365.932
382,74.074969,69.31071468,1065.733,630.631,366.36
383,74.044944,68.2495263,1065.8,631.704,366.824
384,73.997165,64.97259792,1068.12,632.356,367.09
385,73.937718,66.63677396,1065.054,632.818,367.29
386,73.871762,66.88670827,1061.262,633.852,367.758
387,73.833951,65.71787719,1056.09,634.934,368.221
388,73.798603,68.71481476,1051.991,635.982,368.655
389,73.751971,71.38726031,1052.702,636.516,368.894
390,73.706222,68.37394254,1055.572,637.015,369.131
391,73.640364,66.3350598,1059.57,638.035,369.607
392,73.592091,68.10959037,1060.44,639.017,370.039
393,73.572186,68.17452171,1061.47,640.06,370.49
394,73.531945,67.0437765,1063.08,640.655,370.76
395,73.460773,67.01957608,1064.63,641.167,371.003
396,73.396556,68.4218457,1066.045,642.166,371.447
397,73.328886,70.12155098,1064.115,643.088,371.846
398,73.225748,69.07882197,1062.013,644.044,372.267
