Time (s),Mass (g),HRR (kW/m2)
0,105.22,2.49886537
1,105.068072,3.112521192
2,105.016949,3.215229866
3,104.978509,2.130163169
4,104.947722,1.416175963
5,104.935612,3.319994557
6,104.951003,2.772509676
7,104.969212,2.775497592
8,104.950285,3.091177603
9,104.935219,2.997419009
10,104.898412,2.229878453
11,104.824664,9.688627574
12,104.740412,35.06478055
13,104.669852,79.18098518
14,104.579076,94.13381809
15,104.450759,102.0521473
16,104.305365,134.09262
17,104.1718,163.0626531
18,104.079922,180.6025657
19,104.002908,183.6507769
20,103.876269,184.8423569
21,103.745986,190.9627208
22,103.626512,197.7796365
23,103.47666,199.4727213
24,103.328609,201.9352312
25,103.229484,204.0583883
26,103.137535,199.7803147
27,103.016045,196.1211269
28,102.87965,192.6012802
29,102.745987,186.0222684
30,102.641545,177.9137601
31,102.600777,176.8291363
32,102.568941,172.8315335
33,102.455436,169.1461197
34,102.349212,166.297616
35,102.264378,161.8262507
36,102.16869,164.0352306
37,102.063236,159.7047618
38,101.966457,154.1135363
39,101.88985,147.4593854
40,101.801013,143.494669
41,101.736645,147.1666355
42,101.65594,145.3523037
43,101.506109,144.2243281
44,101.389239,137.9424383
45,101.350232,134.3310505
46,101.304319,136.139527
47,101.214471,135.8493028
48,101.105559,134.0474377
49,101.060221,130.3844327
50,100.990236,129.6016531
51,100.915219,125.800342
52,100.874099,125.7168237
53,100.804688,124.9916626
54,100.726311,122.9566203
55,100.650532,114.9945056
56,100.562759,114.972036
57,100.474959,113.5491284
58,100.418803,110.5814583
59,100.379074,113.0892697
60,100.333018,116.0947767
61,100.23269,117.5009988
62,100.124273,117.826234
63,100.051738,120.0161987
64,100.002633,118.2009628
65,99.920282,115.3607093
66,99.836495,112.0489432
67,99.797215,111.7434507
68,99.742847,113.7055049
69,99.661013,115.0349059
70,99.580708,111.1183506
71,99.503645,110.1661989
72,99.415143,109.1912329
73,99.347661,107.4944223
74,99.310573,107.3735934
75,99.255055,107.7947091
76,99.179907,107.0385069
77,99.125861,102.8175097
78,99.066911,103.0008865
79,99.010137,102.6688226
80,98.960773,103.0512475
81,98.898166,103.577889
82,98.83661,104.4041425
83,98.739224,103.6490526
84,98.676727,103.8194135
85,98.641147,102.0165005
86,98.579506,100.4140616
87,98.502819,104.0813348
88,98.428885,103.1956943
89,98.376938,102.1571214
90,98.345327,101.4865181
91,98.302044,100.4912385
92,98.250054,98.90258398
93,98.210313,98.73513829
94,98.118959,98.02722084
95,98.034489,97.93323185
96,97.973577,95.97666936
97,97.940738,95.2955842
98,97.88183,97.12604133
99,97.815398,95.48610929
100,97.763539,94.97126974
101,97.7021,95.19133686
102,97.649,95.91621242
103,97.603354,95.17319397
104,97.526514,95.67674708
105,97.454017,95.26957879
106,97.402629,95.41873563
107,97.351516,95.72893454
108,97.2899,97.41932088
109,97.228372,99.49797024
110,97.182793,98.33965196
111,97.145325,94.41532774
112,97.112384,93.26534799
113,97.052398,92.54867772
114,96.993461,90.56609277
115,96.93341,91.35928139
116,96.855989,89.97343454
117,96.793103,88.16918345
118,96.743659,89.35632849
119,96.680388,88.82971978
120,96.63584,87.94767875
121,96.602071,87.52555382
122,96.540885,84.82966071
123,96.489373,83.39593315
124,96.438942,87.74021347
125,96.372577,88.94848609
126,96.311245,87.6324148
127,96.271091,87.73274466
128,96.210618,87.59974257
129,96.130952,87.41709712
130,96.079991,85.44279107
131,96.047167,85.20464101
132,96.013285,86.54338301
133,95.966776,87.49189425
134,95.927461,85.22864741
135,95.895544,86.01267036
136,95.834783,85.53145059
137,95.756986,86.05309833
138,95.706738,87.47319328
139,95.655446,85.9742608
140,95.572929,84.72684504
141,95.536923,84.29736282
142,95.523207,83.1500376
143,95.451319,82.68368608
144,95.396795,85.58461192
145,95.356513,85.62880554
146,95.291367,86.25961698
147,95.242837,83.99650565
148,95.202359,81.54195036
149,95.134514,85.26965939
150,95.088592,83.19276861
151,95.063972,81.08167553
152,94.998008,82.38871792
153,94.930952,83.48104362
154,94.885924,83.36518755
155,94.834513,83.5794722
156,94.788731,82.79462049
157,94.732838,83.23250057
158,94.687053,83.43143087
159,94.661631,82.57842668
160,94.592243,82.91858736
161,94.525623,81.31150216
162,94.488987,81.14243597
163,94.456098,82.04392117
164,94.381727,80.64008494
165,94.29565,80.48620812
166,94.243694,83.18286606
167,94.205531,82.30852565
168,94.17549,79.90758844
169,94.116209,80.62935975
170,94.061091,79.59381525
171,94.030835,78.92710283
172,93.993298,79.39020485
173,93.941588,78.66243121
174,93.888577,78.24803123
175,93.853283,80.448754
176,93.793049,79.47264004
177,93.735452,79.59481654
178,93.701907,77.58687057
179,93.645066,75.68403282
180,93.598752,80.0331888
181,93.537579,80.22935598
182,93.460768,78.79916994
183,93.425263,78.24449357
184,93.38634,77.9680603
185,93.349249,76.27008987
186,93.275,77.96764302
187,93.179584,78.26380395
188,93.117505,79.06510213
189,93.087751,78.97703371
190,93.05809,77.07780978
191,93.035267,78.80496535
192,92.981484,78.40818687
193,92.90097,76.21622863
194,92.849251,75.72656429
195,92.810242,77.66969525
196,92.759796,77.84846587
197,92.722916,78.21592221
198,92.681777,77.35296913
199,92.623238,77.60027624
200,92.560386,78.01721966
201,92.481991,76.59936001
202,92.416703,75.70252531
203,92.361177,74.78908284
204,92.332311,75.88971416
205,92.309293,76.74597013
206,92.250537,77.53673649
207,92.191895,76.24223368
208,92.171249,76.37342002
209,92.136193,77.04813875
210,92.056573,76.14464357
211,91.991769,77.46908795
212,91.954567,77.41017902
213,91.910361,76.52681053
214,91.868556,75.18012047
215,91.829433,75.54514242
216,91.764966,75.78292169
217,91.702214,76.1400033
218,91.655587,75.09543653
219,91.613364,75.11101021
220,91.591119,75.75660415
221,91.53174,73.94656834
222,91.443425,74.92760896
223,91.397879,74.8088256
224,91.359021,73.86750882
225,91.29391,76.36713412
226,91.232189,78.47719314
227,91.177755,75.32739819
228,91.139527,74.87048004
229,91.108112,74.9251992
230,91.033148,73.8332138
231,90.96994,74.52159797
232,90.923769,75.20330637
233,90.86521,75.65743864
234,90.814021,77.23516818
235,90.750629,77.02274149
236,90.684421,76.20064066
237,90.656414,77.65493317
238,90.631895,76.44872755
239,90.56702,75.8845376
240,90.500552,75.57697822
241,90.451954,74.94680277
242,90.392805,74.53256618
243,90.353448,74.7529097
244,90.325119,74.16441942
245,90.260663,76.34591678
246,90.190563,77.62138715
247,90.147265,75.62297269
248,90.113437,72.86607972
249,90.065909,73.31778846
250,90.008579,74.40265686
251,89.968273,74.8586366
252,89.930422,73.54068845
253,89.889838,72.48173513
254,89.800814,72.3848971
255,89.72818,74.7318302
256,89.702955,77.23212902
257,89.653135,77.7851013
258,89.607255,74.70929269
259,89.586445,74.64325785
260,89.463275,74.02500017
261,89.414796,72.94380039
262,89.37573,74.05081589
263,89.340365,75.12394768
264,89.304964,75.5534102
265,89.236847,76.25051257
266,89.156945,73.83684818
267,89.098609,71.1489501
268,89.065897,72.74919528
269,89.01972,72.64168535
270,88.959285,74.30961761
271,88.915948,72.96450017
272,88.87108,72.28055628
273,88.815339,74.93667457
274,88.767492,73.97599855
275,88.709076,73.36237793
276,88.627348,74.36751567
277,88.569997,76.61191185
278,88.545482,74.14978562
279,88.501466,75.02443399
280,88.449824,75.75974736
281,88.412041,74.32952235
282,88.397456,73.16498454
283,88.332966,72.07891751
284,88.240118,73.0265936
285,88.174832,72.97911836
286,88.117633,73.30122683
287,88.069259,75.82517969
288,88.031094,75.74180532
289,87.966143,73.77887067
290,87.905254,75.03370455
291,87.849473,75.40538573
292,87.792965,76.35207036
293,87.736565,79.27836063
294,87.700816,79.15277908
295,87.665856,77.37925161
296,87.601497,76.35736175
297,87.530183,76.00359687
298,87.458169,76.17009906
299,87.416018,77.83795125
300,87.392875,77.86194286
301,87.311067,78.40254633
302,87.23288,76.79641332
303,87.197909,75.34365428
304,87.166587,76.70687437
305,87.127145,75.43944516
306,87.059598,75.49980118
307,86.984532,76.22028505
308,86.915808,76.1223897
309,86.862307,76.61296759
310,86.849724,76.99382531
311,86.800343,76.46113312
312,86.691989,77.83502307
313,86.627738,76.88931806
314,86.588629,75.05235328
315,86.523161,77.63448675
316,86.443653,77.32688187
317,86.398422,75.97472933
318,86.391045,76.72296388
319,86.365017,77.27575945
320,86.27879,76.81364782
321,86.199977,76.16062599
322,86.165527,76.85501057
323,86.151493,78.49325814
324,86.108123,80.20468831
325,86.01835,77.74324818
326,85.941384,78.21654394
327,85.891893,79.36761784
328,85.843296,77.34880957
329,85.801384,76.58776211
330,85.774536,77.31565922
331,85.711933,76.71522768
332,85.626401,76.75591479
333,85.56107,76.01429767
334,85.488842,74.74877076
335,85.419956,76.50958005
336,85.394002,75.52065264
337,85.36632,74.46798147
338,85.296436,78.01831107
339,85.232505,81.71081538
340,85.194511,79.29645
341,85.143501,77.11778297
342,85.07343,76.67911906
343,85.005636,76.6330103
344,84.959274,77.96662878
345,84.914027,77.26881126
346,84.850401,76.32017182
347,84.796735,77.89863792
348,84.742202,77.05256394
349,84.679579,77.55370952
350,84.629009,79.56060057
351,84.594223,77.40622505
352,84.542273,77.24883725
353,84.484314,76.2166906
354,84.407638,75.50983344
355,84.324501,76.54972187
356,84.280966,77.47097691
357,84.22783,76.70662496
358,84.171386,76.37649055
359,84.125703,77.13976734
360,84.091331,75.77443276
361,84.046499,75.12167779
362,83.97715,74.21845113
363,83.922509,73.59533147
364,83.857615,75.694912
365,83.786974,77.34885888
366,83.731863,76.14974867
367,83.668876,73.90210281
368,83.618156,72.37235018
369,83.619969,74.56174162
370,83.581108,77.75637907
371,83.5084,76.16540552
372,83.449696,76.73766397
373,83.328364,77.68811165
374,83.210102,77.65061067
375,83.161217,77.96647661
376,83.153466,75.04378437
377,83.144638,75.00911362
378,83.107545,75.66827934
379,83.055295,74.58719197
380,83.002123,76.82450677
381,82.938726,78.67202562
382,82.857645,76.47963562
383,82.797565,75.44877837
384,82.771021,76.41539054
385,82.727363,76.79582577
386,82.667752,77.46972641
387,82.609245,76.88997491
388,82.530618,76.67947908
389,82.469012,78.94441682
390,82.412576,77.41267443
391,82.354567,75.71353375
392,82.305333,78.72313254
393,82.254074,78.13362664
394,82.206004,76.14455859
395,82.152978,76.5356867
396,82.096296,78.40964457
397,82.032869,79.32845563
398,81.967446,79.92208584
399,81.911614,79.31618724
400,81.842651,77.43614594
401,81.798517,78.58124863
402,81.764735,77.78669381
403,81.710508,76.58186435
404,81.67457,77.35045083
405,81.61384,75.98253286
406,81.519689,74.3424426
407,81.455693,76.41828776
408,81.416769,78.23253745
409,81.360505,79.88721685
410,81.289859,79.08046809
411,81.233543,76.31663967
412,81.175717,76.37494814
413,81.118702,76.69906732
414,81.101846,76.43761742
415,81.05901,77.47265404
416,80.976801,77.59342753
417,80.923109,74.7350739
418,80.859723,76.95934395
419,80.780985,79.04013669
420,80.733157,78.25268831
421,80.686271,77.39278322
422,80.610195,77.17987822
423,80.564639,76.51858592
424,80.547914,76.36728974
425,80.488141,77.02935458
426,80.415563,77.83111529
427,80.356633,80.55961831
428,80.298395,78.48842482
429,80.236379,76.5309271
430,80.163313,75.10080768
431,80.128024,75.80245198
432,80.091745,77.87944183
433,80.017264,78.46559258
434,79.964209,78.79261331
435,79.91144,78.65008359
436,79.855392,78.62025534
437,79.825446,76.89600472
438,79.775207,78.52668319
439,79.69255,79.06868443
440,79.637294,78.41691068
441,79.610608,79.34801176
442,79.556673,78.29873801
443,79.481218,77.73238922
444,79.41856,79.09407489
445,79.345175,78.51609545
446,79.286697,78.19074537
447,79.251411,78.54904814
448,79.190016,77.14150319
449,79.113149,76.68931731
450,79.044207,76.33657237
451,78.992136,77.06414405
452,78.944692,79.79187765
453,78.911383,82.47907165
454,78.872234,80.71870838
455,78.816196,78.86172812
456,78.764483,78.95247355
457,78.696988,78.62754602
458,78.617465,78.41678987
459,78.571157,80.49329219
460,78.524271,81.57708651
461,78.466124,81.27509421
462,78.407649,80.58941091
463,78.33557,79.08019802
464,78.275085,78.32471576
465,78.224606,78.90508665
466,78.152337,79.76617152
467,78.078456,78.38919804
468,78.058061,79.56916839
469,78.026841,79.83677053
470,77.962555,77.94832411
471,77.897505,78.03954189
472,77.834503,78.52614678
473,77.794823,77.65497206
474,77.733491,79.43959398
475,77.660606,79.03182935
476,77.613014,78.19734705
477,77.563906,80.44167661
478,77.499031,80.82430762
479,77.441393,79.7273908
480,77.432617,81.3774374
481,77.386803,81.99113611
482,77.29011,80.68694902
483,77.233897,80.71219544
484,77.163106,79.76754929
485,77.095042,79.94639505
486,77.031089,78.76137894
487,76.970269,76.95356114
488,76.942081,79.06586197
489,76.927122,81.42176712
490,76.892116,79.41819171
491,76.831291,78.04581664
492,76.746842,76.76331813
493,76.681055,77.83364619
494,76.623895,80.97397339
495,76.555117,80.03701806
496,76.51822,79.47280778
497,76.451862,81.91427541
498,76.365751,81.90349477
499,76.321682,80.21311535
500,76.285586,80.21449691
501,76.237618,80.14646076
502,76.203,79.59604904
503,76.146425,80.31440808
504,76.048841,81.00123715
505,75.998242,78.07352677
506,75.954517,78.42310072
507,75.866809,79.92731893
508,75.808557,78.79382646
509,75.76971,81.56253687
510,75.686092,83.22977474
511,75.617294,79.89252593
512,75.610238,79.11477567
513,75.563939,79.94078627
514,75.463177,78.95530692
515,75.414606,78.63250604
516,75.361629,77.81510679
517,75.304949,76.21951941
518,75.256754,78.54705196
519,75.196192,79.40638309
520,75.144582,76.95950855
521,75.082056,79.89198419
522,75.037924,80.39717314
523,74.994905,78.36273826
524,74.902001,79.30511955
525,74.851073,80.3731019
526,74.82901,79.97189723
527,74.771766,80.32900367
528,74.687369,80.87792649
529,74.642313,78.48485322
530,74.618102,78.23999757
531,74.546635,79.41508651
532,74.471952,78.9719837
533,74.425209,79.39421412
534,74.354913,79.37216761
535,74.295452,77.52788715
536,74.247772,79.2356372
537,74.175689,78.92037775
538,74.116687,78.16272286
539,74.084048,81.33075853
540,74.025283,82.38204773
541,73.957213,78.71268041
542,73.894003,79.45865186
543,73.802914,80.85161324
544,73.738025,80.19689421
545,73.732374,82.02620135
546,73.687287,81.3628803
547,73.626926,80.71568837
548,73.593094,81.69225568
549,73.539124,82.55163176
550,73.465249,84.20257249
551,73.386045,86.7742982
552,73.345024,85.15650086
553,73.309688,84.71605399
554,73.237593,84.77393923
555,73.151575,82.89352475
556,73.110705,83.65783492
557,73.072811,83.39162552
558,73.005346,81.54057473
559,72.944267,81.9009868
560,72.888891,83.0075915
561,72.824974,82.00744317
562,72.760668,82.21420333
563,72.705589,80.62944173
564,72.652651,78.89798353
565,72.62051,79.4214881
566,72.590942,79.48206068
567,72.520418,79.81478736
568,72.437971,82.53887832
569,72.380018,82.95720818
570,72.36856,82.14770928
571,72.317118,84.02720431
572,72.212306,82.90457802
573,72.127676,82.13567593
574,72.075935,82.87190877
575,72.029834,81.25067604
576,71.960727,80.19929077
577,71.900245,80.95426234
578,71.861216,80.2704055
579,71.818435,80.72862238
580,71.773218,83.79145908
581,71.712957,84.13380218
582,71.645364,83.50688691
583,71.580075,83.44871758
584,71.517927,83.62014565
585,71.45291,83.87645061
586,71.400937,82.5839313
587,71.384661,81.73964419
588,71.3381,84.07575126
589,71.266049,83.14556139
590,71.206102,79.89421803
591,71.151948,83.23531777
592,71.075252,86.65585045
593,71.018702,84.25028334
594,70.968604,83.83532185
595,70.905668,85.24273966
596,70.874944,82.54509464
597,70.813892,79.59191156
598,70.754039,80.13935527
599,70.704201,82.42295624
600,70.629788,83.0804451
601,70.556414,81.82765927
602,70.515288,80.02979279
603,70.474304,81.31908003
604,70.40354,82.07755231
605,70.345167,80.95535265
606,70.319052,79.63786029
607,70.268541,80.53032037
608,70.188838,81.7841569
609,70.142285,80.3394651
610,70.096228,79.36447938
611,70.021704,80.98967667
612,69.943144,81.82350729
613,69.885498,81.47937751
614,69.840899,80.91465932
615,69.789857,82.24734177
616,69.725255,82.53809037
617,69.663485,82.00163338
618,69.6076,80.90941471
619,69.548969,83.446084
620,69.4964,81.7763868
621,69.464858,77.37365094
622,69.417009,77.86382746
623,69.348424,77.65094761
624,69.293477,79.4548548
625,69.239299,81.63508193
626,69.189931,82.69164311
627,69.146786,84.19159712
628,69.080086,84.67690158
629,69.010234,81.9961953
630,68.951284,81.81439211
631,68.886303,81.30603399
632,68.818124,81.10640138
633,68.773323,82.1247585
634,68.745295,83.53542014
635,68.697208,83.16057373
636,68.620279,83.67846485
637,68.538742,83.14627413
638,68.480511,80.02759195
639,68.434131,82.10528688
640,68.39269,83.82397299
641,68.363244,81.55734779
642,68.31466,82.34340909
643,68.225984,84.68197575
644,68.142508,83.97214598
645,68.130733,84.04477622
646,68.115023,81.72049568
647,68.02429,79.44187834
648,67.949069,81.09923608
649,67.904351,82.05264746
650,67.851115,80.8808078
651,67.782399,80.93817002
652,67.714067,81.30067039
653,67.674233,79.72125093
654,67.644863,81.99328672
655,67.591005,82.46903509
656,67.53543,81.08816077
657,67.445039,80.95206018
658,67.381307,80.66676637
659,67.33753,79.08875253
660,67.277306,80.56821834
661,67.231618,81.01509135
662,67.173811,79.70952901
663,67.108191,81.4536237
664,67.052921,81.98553565
665,66.994326,82.21266885
666,66.933276,81.12676843
667,66.880507,82.02459873
668,66.826241,83.48999609
669,66.766528,86.21320621
670,66.722944,84.15768081
671,66.688193,85.93901514
672,66.627226,86.85493693
673,66.567011,85.01625866
674,66.539472,86.45641651
675,66.49547,86.46952096
676,66.412396,84.76858321
677,66.326963,84.78792252
678,66.252009,84.46397329
679,66.202341,84.13431944
680,66.165204,87.02818003
681,66.134514,84.93600512
682,66.087812,83.23210635
683,66.024544,84.31890735
684,65.96557,85.33079989
685,65.932088,86.15904551
686,65.859869,86.50438309
687,65.7998,87.48044987
688,65.750382,85.96784001
689,65.694017,87.1757678
690,65.65033,85.46386649
691,65.608805,82.20196073
692,65.543661,81.00083523
693,65.467461,83.70982049
694,65.391761,82.38343386
695,65.332233,82.27853803
696,65.288041,82.79894043
697,65.219118,82.37274574
698,65.15736,81.74333751
699,65.116348,83.12325392
700,65.086088,81.07925761
701,65.050797,80.43432088
702,64.978499,81.82375779
703,64.890015,80.6407577
704,64.842666,81.72753902
705,64.789682,84.45290745
706,64.732727,83.23489953
707,64.675639,82.42737863
708,64.632573,82.26866942
709,64.579592,81.2018468
710,64.502692,81.44607458
711,64.459073,85.12278861
712,64.414485,83.58223635
713,64.345226,81.82659453
714,64.302515,83.59637956
715,64.259613,82.64988276
716,64.204563,83.30443225
717,64.121732,84.73787494
718,64.047217,85.60080209
719,64.000896,85.31332104
720,63.957732,86.73461894
721,63.903468,83.49919336
722,63.854325,82.17379029
723,63.800373,84.68769671
724,63.72255,85.08807418
725,63.669825,85.13215722
726,63.643071,85.88078192
727,63.581791,85.6662413
728,63.516159,85.29665231
729,63.44945,86.02846045
730,63.407772,84.5940958
731,63.36382,85.72023725
732,63.298518,84.67498246
733,63.217873,84.10189115
734,63.181322,85.64439729
735,63.119766,84.32774646
736,63.054827,81.48727737
737,63.00643,83.44420715
738,62.971985,85.47929197
739,62.89864,84.34108263
740,62.846859,84.13452846
741,62.793322,82.83861701
742,62.732417,83.43518036
743,62.691975,84.95758275
744,62.674808,87.9641888
745,62.639288,84.59199007
746,62.569453,84.36961222
747,62.459054,86.51661246
748,62.363916,85.6574231
749,62.293646,85.91221116
750,62.24827,86.2047597
751,62.199124,85.36487296
752,62.165794,86.89775623
753,62.128845,85.79812526
754,62.089429,85.58615216
755,62.045353,86.24149711
756,61.994029,85.00067182
757,61.960413,86.47731563
758,61.862542,86.19023286
759,61.799607,86.36222618
760,61.790444,86.75943719
761,61.734356,87.20373901
762,61.660887,85.14858108
763,61.608071,86.01156134
764,61.565316,86.62680649
765,61.488042,84.29180784
766,61.438027,85.67216951
767,61.378201,85.45139557
768,61.270373,85.6619343
769,61.1831,84.90989844
770,61.119248,87.58849453
771,61.114746,84.78936188
772,61.054077,87.27282541
773,61.017488,85.58275499
774,61.001519,84.42393101
775,60.932592,84.42586825
