Time (s),MLR (g/m2/s),T Back (K),T Top (K)
0.00E+00,0.00E+00,2.93E+02,2.93E+02
1.00E+00,4.61E-12,2.93E+02,3.17E+02
2.00E+00,1.84E-11,2.93E+02,3.36E+02
3.05E+00,6.37E-11,2.93E+02,3.48E+02
4.05E+00,1.69E-10,2.93E+02,3.57E+02
5.05E+00,3.72E-10,2.93E+02,3.65E+02
6.05E+00,7.23E-10,2.93E+02,3.71E+02
7.05E+00,1.29E-09,2.93E+02,3.77E+02
8.05E+00,2.15E-09,2.94E+02,3.83E+02
9.05E+00,3.39E-09,2.94E+02,3.88E+02
1.00E+01,5.08E-09,2.94E+02,3.92E+02
1.10E+01,7.36E-09,2.95E+02,3.96E+02
1.20E+01,1.04E-08,2.95E+02,4.00E+02
1.30E+01,1.44E-08,2.96E+02,4.04E+02
1.40E+01,1.94E-08,2.97E+02,4.07E+02
1.50E+01,2.57E-08,2.98E+02,4.11E+02
1.60E+01,3.35E-08,2.99E+02,4.14E+02
1.70E+01,4.29E-08,3.00E+02,4.17E+02
1.80E+01,5.42E-08,3.01E+02,4.20E+02
1.90E+01,6.77E-08,3.03E+02,4.23E+02
2.00E+01,8.35E-08,3.04E+02,4.26E+02
2.10E+01,1.02E-07,3.05E+02,4.28E+02
2.20E+01,1.23E-07,3.07E+02,4.31E+02
2.30E+01,1.48E-07,3.08E+02,4.33E+02
2.40E+01,1.77E-07,3.10E+02,4.35E+02
2.50E+01,2.09E-07,3.11E+02,4.38E+02
2.60E+01,2.45E-07,3.13E+02,4.40E+02
2.70E+01,2.87E-07,3.14E+02,4.42E+02
2.80E+01,3.33E-07,3.16E+02,4.44E+02
2.90E+01,3.85E-07,3.18E+02,4.46E+02
3.00E+01,4.43E-07,3.19E+02,4.48E+02
3.10E+01,5.07E-07,3.21E+02,4.50E+02
3.20E+01,5.78E-07,3.23E+02,4.52E+02
3.30E+01,6.56E-07,3.24E+02,4.54E+02
3.40E+01,7.42E-07,3.26E+02,4.56E+02
3.50E+01,8.37E-07,3.28E+02,4.57E+02
3.60E+01,9.41E-07,3.29E+02,4.59E+02
3.70E+01,1.05E-06,3.31E+02,4.61E+02
3.81E+01,1.18E-06,3.33E+02,4.62E+02
3.91E+01,1.32E-06,3.34E+02,4.64E+02
4.01E+01,1.46E-06,3.36E+02,4.66E+02
4.11E+01,1.62E-06,3.38E+02,4.67E+02
4.21E+01,1.79E-06,3.40E+02,4.69E+02
4.31E+01,1.98E-06,3.41E+02,4.70E+02
4.41E+01,2.18E-06,3.43E+02,4.72E+02
4.51E+01,2.39E-06,3.45E+02,4.73E+02
4.61E+01,2.62E-06,3.46E+02,4.75E+02
4.71E+01,2.87E-06,3.48E+02,4.76E+02
4.81E+01,3.14E-06,3.49E+02,4.77E+02
4.91E+01,3.42E-06,3.51E+02,4.79E+02
5.01E+01,3.73E-06,3.53E+02,4.80E+02
5.11E+01,4.05E-06,3.54E+02,4.81E+02
5.21E+01,4.39E-06,3.56E+02,4.83E+02
5.31E+01,4.76E-06,3.58E+02,4.84E+02
5.41E+01,5.15E-06,3.59E+02,4.85E+02
5.51E+01,5.57E-06,3.61E+02,4.87E+02
5.61E+01,6.01E-06,3.62E+02,4.88E+02
5.71E+01,6.48E-06,3.64E+02,4.89E+02
5.81E+01,6.97E-06,3.65E+02,4.90E+02
5.91E+01,7.50E-06,3.67E+02,4.91E+02
6.01E+01,8.05E-06,3.69E+02,4.93E+02
6.11E+01,8.64E-06,3.70E+02,4.94E+02
6.21E+01,9.25E-06,3.72E+02,4.95E+02
6.31E+01,9.90E-06,3.73E+02,4.96E+02
6.41E+01,1.06E-05,3.75E+02,4.97E+02
6.51E+01,1.13E-05,3.76E+02,4.98E+02
6.61E+01,1.21E-05,3.78E+02,4.99E+02
6.71E+01,1.29E-05,3.79E+02,5.00E+02
6.81E+01,1.37E-05,3.80E+02,5.01E+02
6.91E+01,1.46E-05,3.82E+02,5.03E+02
7.01E+01,1.55E-05,3.83E+02,5.04E+02
7.11E+01,1.65E-05,3.85E+02,5.05E+02
7.21E+01,1.75E-05,3.86E+02,5.06E+02
7.31E+01,1.85E-05,3.88E+02,5.07E+02
7.41E+01,1.96E-05,3.89E+02,5.08E+02
7.51E+01,2.08E-05,3.90E+02,5.09E+02
7.61E+01,2.20E-05,3.92E+02,5.10E+02
7.71E+01,2.33E-05,3.93E+02,5.11E+02
7.81E+01,2.46E-05,3.95E+02,5.12E+02
7.91E+01,2.59E-05,3.96E+02,5.13E+02
8.01E+01,2.74E-05,3.97E+02,5.13E+02
8.11E+01,2.88E-05,3.99E+02,5.14E+02
8.21E+01,3.04E-05,4.00E+02,5.15E+02
8.31E+01,3.20E-05,4.01E+02,5.16E+02
8.41E+01,3.36E-05,4.03E+02,5.17E+02
8.51E+01,3.54E-05,4.04E+02,5.18E+02
8.61E+01,3.72E-05,4.05E+02,5.19E+02
8.71E+01,3.90E-05,4.07E+02,5.20E+02
8.81E+01,4.09E-05,4.08E+02,5.21E+02
8.91E+01,4.29E-05,4.09E+02,5.22E+02
9.01E+01,4.50E-05,4.10E+02,5.22E+02
9.11E+01,4.71E-05,4.12E+02,5.23E+02
9.21E+01,4.93E-05,4.13E+02,5.24E+02
9.31E+01,5.16E-05,4.14E+02,5.25E+02
9.41E+01,5.40E-05,4.15E+02,5.26E+02
9.51E+01,5.64E-05,4.17E+02,5.27E+02
9.61E+01,5.89E-05,4.18E+02,5.27E+02
9.71E+01,6.15E-05,4.19E+02,5.28E+02
9.81E+01,6.42E-05,4.20E+02,5.29E+02
9.91E+01,6.69E-05,4.21E+02,5.30E+02
1.00E+02,6.97E-05,4.23E+02,5.31E+02
1.01E+02,7.27E-05,4.24E+02,5.31E+02
1.02E+02,7.57E-05,4.25E+02,5.32E+02
1.03E+02,7.87E-05,4.26E+02,5.33E+02
1.04E+02,8.19E-05,4.27E+02,5.34E+02
1.05E+02,8.52E-05,4.28E+02,5.35E+02
1.06E+02,8.85E-05,4.29E+02,5.35E+02
1.07E+02,9.19E-05,4.31E+02,5.36E+02
1.08E+02,9.54E-05,4.32E+02,5.37E+02
1.09E+02,9.90E-05,4.33E+02,5.37E+02
1.10E+02,1.03E-04,4.34E+02,5.38E+02
1.11E+02,1.07E-04,4.35E+02,5.39E+02
1.12E+02,1.10E-04,4.36E+02,5.40E+02
1.13E+02,1.14E-04,4.37E+02,5.40E+02
1.14E+02,1.18E-04,4.38E+02,5.41E+02
1.15E+02,1.23E-04,4.39E+02,5.42E+02
1.16E+02,1.27E-04,4.40E+02,5.42E+02
1.17E+02,1.31E-04,4.42E+02,5.43E+02
1.18E+02,1.36E-04,4.43E+02,5.44E+02
1.19E+02,1.40E-04,4.44E+02,5.44E+02
1.20E+02,1.45E-04,4.45E+02,5.45E+02
1.21E+02,1.49E-04,4.46E+02,5.46E+02
1.22E+02,1.54E-04,4.47E+02,5.47E+02
1.23E+02,1.59E-04,4.48E+02,5.47E+02
1.24E+02,1.64E-04,4.49E+02,5.48E+02
1.25E+02,1.69E-04,4.50E+02,5.48E+02
1.26E+02,1.74E-04,4.51E+02,5.49E+02
1.27E+02,1.80E-04,4.52E+02,5.50E+02
1.28E+02,1.85E-04,4.53E+02,5.50E+02
1.29E+02,1.90E-04,4.54E+02,5.51E+02
1.30E+02,1.96E-04,4.55E+02,5.52E+02
1.31E+02,2.01E-04,4.56E+02,5.52E+02
1.32E+02,2.07E-04,4.57E+02,5.53E+02
1.33E+02,2.13E-04,4.58E+02,5.54E+02
1.34E+02,2.19E-04,4.59E+02,5.54E+02
1.35E+02,2.25E-04,4.59E+02,5.55E+02
1.36E+02,2.31E-04,4.60E+02,5.55E+02
1.37E+02,2.37E-04,4.61E+02,5.56E+02
1.38E+02,2.43E-04,4.62E+02,5.57E+02
1.39E+02,2.49E-04,4.63E+02,5.57E+02
1.40E+02,2.56E-04,4.64E+02,5.58E+02
1.41E+02,2.62E-04,4.65E+02,5.58E+02
1.42E+02,2.69E-04,4.66E+02,5.59E+02
1.43E+02,2.75E-04,4.67E+02,5.59E+02
1.44E+02,2.82E-04,4.68E+02,5.60E+02
1.45E+02,2.88E-04,4.69E+02,5.61E+02
1.46E+02,2.95E-04,4.69E+02,5.61E+02
1.47E+02,3.02E-04,4.70E+02,5.62E+02
1.48E+02,3.09E-04,4.71E+02,5.62E+02
1.49E+02,3.16E-04,4.72E+02,5.63E+02
1.50E+02,3.23E-04,4.73E+02,5.63E+02
1.51E+02,3.30E-04,473.65135,563.95021
1.52E+02,3.37E-04,474.46834,564.48279
1.53E+02,3.44E-04,475.30059,565.02584
1.54E+02,3.52E-04,476.12704,565.56522
1.55E+02,3.59E-04,476.94778,566.10152
1.56E+02,3.66E-04,477.76273,566.63419
1.57E+02,3.74E-04,478.57202,567.16377
1.58E+02,3.81E-04,479.37567,567.68974
1.59E+02,3.89E-04,480.17366,568.21272
1.60E+02,3.97E-04,480.96603,568.73208
1.61E+02,4.04E-04,481.75272,569.24843
1.62E+02,4.12E-04,482.53386,569.76119
1.63E+02,4.20E-04,483.30951,570.27096
1.64E+02,4.28E-04,484.07962,570.77721
1.65E+02,4.35E-04,484.84425,571.28045
1.66E+02,4.43E-04,485.6033,571.78012
1.67E+02,4.51E-04,486.35695,572.27686
1.68E+02,4.59E-04,487.10524,572.77005
1.69E+02,4.67E-04,487.84806,573.26024
1.70E+02,4.75E-04,488.58552,573.74689
1.71E+02,4.83E-04,489.31763,574.2306
1.72E+02,4.92E-04,490.04444,574.71067
1.73E+02,5.00E-04,490.76597,575.1879
1.74E+02,5.08E-04,491.48213,575.66151
1.75E+02,5.16E-04,492.1931,576.13225
1.76E+02,5.25E-04,492.8988,576.59928
1.77E+02,5.33E-04,493.59932,577.06355
1.78E+02,5.41E-04,494.29468,577.52404
1.79E+02,5.50E-04,494.98496,577.98183
1.80E+02,5.58E-04,495.67011,578.43581
1.81E+02,5.66E-04,496.35018,578.88699
1.82E+02,5.75E-04,497.02523,579.33454
1.83E+02,5.83E-04,497.69524,579.77918
1.84E+02,5.92E-04,498.36021,580.22027
1.85E+02,6.00E-04,499.02031,580.65815
1.86E+02,6.09E-04,499.67543,581.09295
1.87E+02,6.18E-04,500.32563,581.52416
1.88E+02,6.26E-04,500.97104,581.95256
1.89E+02,6.35E-04,501.61152,582.37716
1.90E+02,6.43E-04,502.24721,582.79903
1.91E+02,6.52E-04,502.87817,583.21719
1.92E+02,6.61E-04,503.50428,583.63249
1.93E+02,6.70E-04,504.12579,584.04433
1.94E+02,6.78E-04,504.74252,584.45285
1.95E+02,6.87E-04,505.35455,584.85844
1.96E+02,6.96E-04,505.96212,585.26035
1.97E+02,7.05E-04,506.56489,585.65956
1.98E+02,7.14E-04,507.16327,586.05512
1.99E+02,7.23E-04,507.7571,586.44768
2.00E+02,7.31E-04,508.3463,586.83711
2.01E+02,7.40E-04,508.9312,587.22313
2.02E+02,7.49E-04,509.51153,587.60634
2.03E+02,7.58E-04,510.08763,587.98602
2.04E+02,7.67E-04,510.65922,588.36277
2.05E+02,7.76E-04,511.22649,588.73641
2.06E+02,7.85E-04,511.78954,589.10675
2.07E+02,7.94E-04,512.34827,589.4743
2.08E+02,8.03E-04,512.90296,589.8385
2.09E+02,8.12E-04,513.45323,590.19969
2.10E+02,8.21E-04,513.99959,590.55799
2.11E+02,8.30E-04,514.54168,590.91298
2.12E+02,8.39E-04,515.07985,591.26521
2.13E+02,8.48E-04,515.61385,591.61442
2.14E+02,8.58E-04,516.14399,591.96043
2.15E+02,8.67E-04,516.67013,592.30376
2.16E+02,8.76E-04,517.19235,592.64403
2.17E+02,8.85E-04,517.71068,592.98126
2.18E+02,8.94E-04,518.22515,593.31591
2.19E+02,9.03E-04,518.73591,593.64746
2.20E+02,9.12E-04,519.24277,593.97613
2.21E+02,9.21E-04,519.74605,594.30227
2.22E+02,9.31E-04,520.24553,594.62528
2.23E+02,9.40E-04,520.74151,594.94557
2.24E+02,9.49E-04,521.2337,595.2634
2.25E+02,9.58E-04,521.72246,595.5781
2.26E+02,9.67E-04,522.20762,595.89025
2.27E+02,9.76E-04,522.68937,596.19994
2.28E+02,9.85E-04,523.16762,596.50653
2.29E+02,9.94E-04,523.64243,596.81071
2.30E+02,1.00E-03,524.11395,597.11246
2.31E+02,1.01E-03,524.58206,597.41122
2.32E+02,1.02E-03,525.04702,597.70763
2.33E+02,1.03E-03,525.50847,598.00166
2.34E+02,1.04E-03,525.967,598.29281
2.35E+02,1.05E-03,526.42208,598.58161
2.36E+02,1.06E-03,526.87437,598.86808
2.37E+02,1.07E-03,527.32319,599.15191
2.38E+02,1.08E-03,527.76926,599.43329
2.39E+02,1.08E-03,528.21211,599.71243
2.40E+02,1.09E-03,528.65211,599.98913
2.41E+02,1.10E-03,529.08919,600.2633
2.42E+02,1.11E-03,529.52319,600.53524
2.43E+02,1.12E-03,529.9546,600.805
2.44E+02,1.13E-03,530.38281,601.07227
2.45E+02,1.14E-03,530.80866,601.33721
2.46E+02,1.15E-03,531.23148,601.60013
2.47E+02,1.16E-03,531.65177,601.86077
2.48E+02,1.16E-03,532.06943,602.11896
2.49E+02,1.17E-03,532.48423,602.37513
2.50E+02,1.18E-03,532.89682,602.62929
2.51E+02,1.19E-03,533.30648,602.88108
2.52E+02,1.20E-03,533.71398,603.13066
2.53E+02,1.21E-03,534.11884,603.37839
2.54E+02,1.22E-03,534.52115,603.62406
2.55E+02,1.22E-03,534.92141,603.86736
2.56E+02,1.23E-03,535.31892,604.10867
2.57E+02,1.24E-03,535.71447,604.34825
2.58E+02,1.25E-03,536.10759,604.58568
2.59E+02,1.26E-03,536.4983,604.82088
2.60E+02,1.27E-03,536.88718,605.05431
2.61E+02,1.27E-03,537.27348,605.28596
2.62E+02,1.28E-03,537.65793,605.51549
2.63E+02,1.29E-03,538.04028,605.74297
2.64E+02,1.30E-03,538.42024,605.96871
2.65E+02,1.31E-03,538.79863,606.19267
2.66E+02,1.31E-03,539.1747,606.41469
2.67E+02,1.32E-03,539.54886,606.63475
2.68E+02,1.33E-03,539.92137,606.85304
2.69E+02,1.34E-03,540.29149,607.06965
2.70E+02,1.34E-03,540.66012,607.28447
2.71E+02,1.35E-03,541.02693,607.49738
2.72E+02,1.36E-03,541.39161,607.70846
2.73E+02,1.37E-03,541.75499,607.91794
2.74E+02,1.37E-03,542.11637,608.12582
2.75E+02,1.38E-03,542.4759,608.33189
2.76E+02,1.39E-03,542.83419,608.53608
2.77E+02,1.40E-03,543.19044,608.73867
2.78E+02,1.40E-03,543.5452,608.93989
2.79E+02,1.41E-03,543.89868,609.13938
2.80E+02,1.42E-03,544.25011,609.33695
2.81E+02,1.43E-03,544.60029,609.53293
2.82E+02,1.43E-03,544.94915,609.72755
2.83E+02,1.44E-03,545.29611,609.92066
2.84E+02,1.45E-03,545.64197,610.11205
2.85E+02,1.45E-03,545.98648,610.30171
2.86E+02,1.46E-03,546.32917,610.48991
2.87E+02,1.47E-03,546.67093,610.67685
2.88E+02,1.47E-03,547.01132,610.86223
2.89E+02,1.48E-03,547.35004,611.04594
2.90E+02,1.49E-03,547.68793,611.22807
2.91E+02,1.49E-03,548.02447,611.40884
2.92E+02,1.50E-03,548.35939,611.58836
2.93E+02,1.51E-03,548.69357,611.76637
2.94E+02,1.51E-03,549.02643,611.94282
2.95E+02,1.52E-03,549.35777,612.11777
2.96E+02,1.53E-03,549.68843,612.29141
2.97E+02,1.53E-03,550.0179,612.46378
2.98E+02,1.54E-03,550.34592,612.63474
2.99E+02,1.55E-03,550.67331,612.80432
3.00E+02,1.55E-03,550.99957,612.97248
3.01E+02,1.56E-03,551.32437,613.13925
3.02E+02,1.56E-03,551.64856,613.30473
3.03E+02,1.57E-03,551.9718,613.46906
3.04E+02,1.58E-03,552.29363,613.63209
3.05E+02,1.58E-03,552.61483,613.79374
3.06E+02,1.59E-03,552.93521,613.95395
3.07E+02,1.59E-03,553.25418,614.11285
3.08E+02,1.60E-03,553.57248,614.27073
3.09E+02,1.61E-03,553.89013,614.42751
3.10E+02,1.61E-03,554.20643,614.58295
3.11E+02,1.62E-03,554.52198,614.73697
3.12E+02,1.62E-03,554.83702,614.88971
3.13E+02,1.63E-03,555.15077,615.04131
3.14E+02,1.64E-03,555.46365,615.19202
3.15E+02,1.64E-03,555.77614,615.34155
3.16E+02,1.65E-03,556.08751,615.48974
3.17E+02,1.65E-03,556.39788,615.63661
3.18E+02,1.66E-03,556.7079,615.78235
3.19E+02,1.66E-03,557.01698,615.92702
3.20E+02,1.67E-03,557.32492,616.07077
3.21E+02,1.67E-03,557.63247,616.21339
3.22E+02,1.68E-03,557.93933,616.35478
3.23E+02,1.69E-03,558.24501,616.49499
3.24E+02,1.69E-03,558.55015,616.63407
3.25E+02,1.70E-03,558.85482,616.77211
3.26E+02,1.70E-03,559.15833,616.90918
3.27E+02,1.71E-03,559.46107,617.04536
3.28E+02,1.71E-03,559.76351,617.18035
3.29E+02,1.72E-03,560.06496,617.31422
3.30E+02,1.72E-03,560.36546,617.44699
3.31E+02,1.73E-03,560.66564,617.57877
3.32E+02,1.73E-03,560.96506,617.70957
3.33E+02,1.74E-03,561.26334,617.83945
3.34E+02,1.74E-03,561.56117,617.96835
3.35E+02,1.75E-03,561.85853,618.09622
3.36E+02,1.76E-03,562.1548,618.22315
3.37E+02,1.76E-03,562.45032,618.349
3.38E+02,1.77E-03,562.74553,618.47388
3.39E+02,1.77E-03,563.03979,618.59773
3.40E+02,1.78E-03,563.33304,618.72072
3.41E+02,1.78E-03,563.62593,618.84296
3.42E+02,1.79E-03,563.91818,618.96429
3.43E+02,1.79E-03,564.20932,619.08463
3.44E+02,1.80E-03,564.49985,619.2039
3.45E+02,1.80E-03,564.78997,619.32216
3.46E+02,1.81E-03,565.07907,619.43953
3.47E+02,1.81E-03,565.36721,619.5561
3.48E+02,1.82E-03,565.65499,619.67212
3.49E+02,1.82E-03,565.94203,619.78717
3.50E+02,1.83E-03,566.22795,619.90126
3.51E+02,1.83E-03,566.51328,620.01437
3.52E+02,1.84E-03,566.79812,620.12651
3.53E+02,1.84E-03,567.0819,620.23786
3.54E+02,1.85E-03,567.36472,620.34844
3.55E+02,1.86E-03,567.6471,620.45827
3.56E+02,1.86E-03,567.92873,620.56748
3.57E+02,1.87E-03,568.20919,620.67573
3.58E+02,1.87E-03,568.48896,620.78305
3.59E+02,1.88E-03,568.76825,620.88954
3.60E+02,1.88E-03,569.04653,620.99516
3.61E+02,1.89E-03,569.32375,621.10007
3.62E+02,1.89E-03,569.60042,621.20423
3.63E+02,1.90E-03,569.8764,621.30758
3.64E+02,1.90E-03,570.15119,621.41034
3.65E+02,1.91E-03,570.4251,621.5123
3.66E+02,1.91E-03,570.69851,621.61344
3.67E+02,1.92E-03,570.97097,621.71378
3.68E+02,1.92E-03,571.24226,621.81338
3.69E+02,1.93E-03,571.51283,621.9122
3.70E+02,1.93E-03,571.78278,622.01027
3.71E+02,1.94E-03,572.05161,622.10764
3.72E+02,1.95E-03,572.31933,622.20429
3.73E+02,1.95E-03,572.58639,622.30042
3.74E+02,1.96E-03,572.8527,622.39573
3.75E+02,1.96E-03,573.11782,622.49032
3.76E+02,1.97E-03,573.38193,622.58423
3.77E+02,1.97E-03,573.6454,622.67742
3.78E+02,1.98E-03,573.90796,622.76989
3.79E+02,1.98E-03,574.16926,622.86164
3.80E+02,1.99E-03,574.42964,622.95266
3.81E+02,1.99E-03,574.68935,623.04297
3.82E+02,2.00E-03,574.94805,623.1328
3.83E+02,2.00E-03,575.2055,623.22212
3.84E+02,2.01E-03,575.46207,623.31079
3.85E+02,2.01E-03,575.71792,623.39873
3.86E+02,2.02E-03,575.97269,623.48598
3.87E+02,2.03E-03,576.22619,623.57242
3.88E+02,2.03E-03,576.47882,623.65818
3.89E+02,2.04E-03,576.7307,623.74334
3.90E+02,2.04E-03,576.98149,623.82791
3.91E+02,2.05E-03,577.23102,623.91197
3.92E+02,2.05E-03,577.47966,623.99564
3.93E+02,2.06E-03,577.72753,624.0787
3.94E+02,2.06E-03,577.97428,624.161
3.95E+02,2.07E-03,578.21975,624.24263
3.96E+02,2.07E-03,578.46431,624.32362
3.97E+02,2.08E-03,578.70808,624.40397
3.98E+02,2.08E-03,578.95078,624.48374
3.99E+02,2.09E-03,579.1922,624.563
4.00E+02,2.09E-03,579.43266,624.64174
4.01E+02,2.10E-03,579.67232,624.71988
4.02E+02,2.10E-03,579.91093,624.79744
4.03E+02,2.11E-03,580.14825,624.87461
4.04E+02,2.11E-03,580.38455,624.95114
4.05E+02,2.12E-03,580.62003,625.02709
4.06E+02,2.12E-03,580.85455,625.10245
4.07E+02,2.13E-03,581.08785,625.17725
4.08E+02,2.13E-03,581.32002,625.25152
4.09E+02,2.14E-03,581.55133,625.32525
4.10E+02,2.14E-03,581.78176,625.39845
4.11E+02,2.15E-03,582.01103,625.47111
4.12E+02,2.15E-03,582.23907,625.54321
4.13E+02,2.16E-03,582.46619,625.61479
4.14E+02,2.16E-03,582.6925,625.68594
4.15E+02,2.17E-03,582.91776,625.7567
4.16E+02,2.17E-03,583.14179,625.82687
4.17E+02,2.18E-03,583.3648,625.89651
4.18E+02,2.18E-03,583.58698,625.96571
4.19E+02,2.19E-03,583.80823,626.03438
4.20E+02,2.19E-03,584.02835,626.10251
4.21E+02,2.19E-03,584.24727,626.1701
4.22E+02,2.20E-03,584.46531,626.23722
4.23E+02,2.20E-03,584.68254,626.30385
4.24E+02,2.21E-03,584.89876,626.37
4.25E+02,2.21E-03,585.11382,626.43567
4.26E+02,2.22E-03,585.32784,626.50084
4.27E+02,2.22E-03,585.54102,626.56574
4.28E+02,2.22E-03,585.75337,626.63024
4.29E+02,2.23E-03,585.96466,626.69424
4.30E+02,2.23E-03,586.17477,626.75778
4.31E+02,2.24E-03,586.38396,626.82087
4.32E+02,2.24E-03,586.59235,626.88348
4.33E+02,2.25E-03,586.79986,626.94557
4.34E+02,2.25E-03,587.00633,627.00713
4.35E+02,2.25E-03,587.21167,627.06823
4.36E+02,2.26E-03,587.41614,627.1289
4.37E+02,2.26E-03,587.61986,627.18915
4.38E+02,2.26E-03,587.82268,627.24912
4.39E+02,2.27E-03,588.02449,627.30876
4.40E+02,2.27E-03,588.22523,627.36799
4.41E+02,2.28E-03,588.42513,627.42696
4.42E+02,2.28E-03,588.62428,627.48539
4.43E+02,2.28E-03,588.82256,627.54332
4.44E+02,2.29E-03,589.01985,627.60078
4.45E+02,2.29E-03,589.21607,627.6578
4.46E+02,2.29E-03,589.4115,627.71445
4.47E+02,2.30E-03,589.60619,627.77074
4.48E+02,2.30E-03,589.80007,627.82663
4.49E+02,2.30E-03,589.993,627.88217
4.50E+02,2.31E-03,590.18491,627.9374
4.51E+02,2.31E-03,590.37601,627.99222
4.52E+02,2.31E-03,590.56638,628.04664
4.53E+02,2.31E-03,590.756,628.10064
4.54E+02,2.32E-03,590.94472,628.15426
4.55E+02,2.32E-03,591.13243,628.20753
4.56E+02,2.32E-03,591.31931,628.26061
4.57E+02,2.33E-03,591.50546,628.31329
4.58E+02,2.33E-03,591.69095,628.3656
4.59E+02,2.33E-03,591.87559,628.41752
4.60E+02,2.33E-03,592.05932,628.46906
4.61E+02,2.34E-03,592.24214,628.52024
4.62E+02,2.34E-03,592.42425,628.57115
4.63E+02,2.34E-03,592.60571,628.62171
4.64E+02,2.34E-03,592.78642,628.6719
4.65E+02,2.35E-03,592.96628,628.72174
4.66E+02,2.35E-03,593.1452,628.77122
4.67E+02,2.35E-03,593.32338,628.82038
4.68E+02,2.35E-03,593.50088,628.86923
4.69E+02,2.35E-03,593.67777,628.91775
4.70E+02,2.36E-03,593.85387,628.96595
4.71E+02,2.36E-03,594.02915,629.01382
4.72E+02,2.36E-03,594.20355,629.06141
4.73E+02,2.36E-03,594.37729,629.10887
4.74E+02,2.36E-03,594.55039,629.15593
4.75E+02,2.37E-03,594.72288,629.20271
4.76E+02,2.37E-03,594.89458,629.24921
4.77E+02,2.37E-03,595.06544,629.29538
4.78E+02,2.37E-03,595.23552,629.34121
4.79E+02,2.37E-03,595.40496,629.38679
4.80E+02,2.37E-03,595.57381,629.43208
4.81E+02,2.38E-03,595.74205,629.47705
4.82E+02,2.38E-03,595.90952,629.52168
4.83E+02,2.38E-03,596.07621,629.56603
4.84E+02,2.38E-03,596.24215,629.6101
4.85E+02,2.38E-03,596.40748,629.6539
4.86E+02,2.38E-03,596.57224,629.69743
4.87E+02,2.38E-03,596.73641,629.74068
4.88E+02,2.38E-03,596.89984,629.78365
4.89E+02,2.38E-03,597.0625,629.82638
4.90E+02,2.39E-03,597.22443,629.86892
4.91E+02,2.39E-03,597.38578,629.91129
4.92E+02,2.39E-03,597.54657,629.95353
4.93E+02,2.39E-03,597.70683,629.99544
4.94E+02,2.39E-03,597.86637,630.03709
4.95E+02,2.39E-03,598.02522,630.07846
4.96E+02,2.39E-03,598.18332,630.11956
4.97E+02,2.39E-03,598.34086,630.16038
4.98E+02,2.39E-03,598.49783,630.2009
4.99E+02,2.39E-03,598.65432,630.24114
5.00E+02,2.39E-03,598.81014,630.28115
5.01E+02,2.39E-03,598.96528,630.32091
5.02E+02,2.39E-03,599.11969,630.3604
5.03E+02,2.39E-03,599.27351,630.39973
5.04E+02,2.39E-03,599.42679,630.43894
5.05E+02,2.39E-03,599.57958,630.47797
5.06E+02,2.40E-03,599.73183,630.51686
5.07E+02,2.40E-03,599.88341,630.55549
5.08E+02,2.40E-03,600.03433,630.59385
5.09E+02,2.40E-03,600.18459,630.63196
5.10E+02,2.40E-03,600.33432,630.66982
5.11E+02,2.40E-03,600.48354,630.70745
5.12E+02,2.40E-03,600.63232,630.74487
5.13E+02,2.40E-03,600.78047,630.78225
5.14E+02,2.40E-03,600.928,630.81938
5.15E+02,2.40E-03,601.07486,630.85629
5.16E+02,2.39E-03,601.22111,630.89301
5.17E+02,2.39E-03,601.36688,630.92953
5.18E+02,2.39E-03,601.51216,630.96591
5.19E+02,2.39E-03,601.65702,631.00207
5.20E+02,2.39E-03,601.80125,631.038
5.21E+02,2.39E-03,601.94487,631.07374
5.22E+02,2.39E-03,602.08786,631.10927
5.23E+02,2.39E-03,602.23028,631.14469
5.24E+02,2.39E-03,602.37224,631.17996
5.25E+02,2.39E-03,602.51372,631.215
5.26E+02,2.39E-03,602.6548,631.24984
5.27E+02,2.39E-03,602.79526,631.28452
5.28E+02,2.39E-03,602.93513,631.31904
5.29E+02,2.39E-03,603.07437,631.35337
5.30E+02,2.39E-03,603.21305,631.38753
5.31E+02,2.39E-03,603.35129,631.42151
5.32E+02,2.39E-03,603.48906,631.45534
5.33E+02,2.39E-03,603.62646,631.48904
5.34E+02,2.38E-03,603.76329,631.52257
