Time,Temperature,Mass
s,K,mg
0,300.99733,4.166099818
3,301.087,4.16567498
6,301.18257,4.166350019
9,301.281,4.166549843
12,301.38871,4.164850073
15,301.50133,4.16514981
18,301.62257,4.165324867
21,301.74714,4.164924798
24,301.87843,4.164874841
27,302.02,4.166150194
30,302.16705,4.167574995
33,302.3211,4.166300062
36,302.48133,4.165400011
39,302.64795,4.16554988
42,302.82367,4.16514981
45,303.00667,4.166224918
48,303.19614,4.166250106
51,303.39843,4.165324867
54,303.60471,4.1665998
57,303.81795,4.167150157
60,304.04067,4.166300062
63,304.26938,4.166475119
66,304.5071,4.166624988
69,304.75557,4.166575031
72,305.01152,4.166700132
75,305.27471,4.166700132
78,305.54643,4.166250106
81,305.82657,4.165400011
84,306.11709,4.165374823
87,306.41314,4.165350055
90,306.72009,4.165400011
93,307.03138,4.166099818
96,307.35209,4.167100201
99,307.68267,4.166674944
102,308.018,4.166624988
105,308.36205,4.166549843
108,308.7159,4.165049898
111,309.07605,4.164250179
114,309.44857,4.165475155
117,309.82709,4.16502513
120,310.21271,4.163999978
123,310.60676,4.163125115
126,311.00719,4.162749814
129,311.41543,4.163249796
132,311.8319,4.16345004
135,312.25786,4.163300172
138,312.69271,4.163549953
141,313.13391,4.163675053
144,313.57986,4.164250179
147,314.03362,4.163750197
150,314.49514,4.164025166
153,314.96209,4.164999942
156,315.43876,4.164324903
159,315.92176,4.16385011
162,316.40909,4.165300099
165,316.90457,4.165350055
168,317.40624,4.165224955
171,317.91276,4.164774929
174,318.42752,4.165224955
177,318.94886,4.165800081
180,319.47314,4.166750088
183,320.00267,4.16502513
186,320.5371,4.163625097
189,321.07676,4.163499996
192,321.62324,4.164700205
195,322.17243,4.164724973
198,322.73,4.164675017
201,323.28838,4.165499924
204,323.8529,4.165899993
207,324.423,4.165649792
210,324.996,4.165350055
213,325.57567,4.165949949
216,326.15757,4.166624988
219,326.74186,4.165274911
222,327.32938,4.165250143
225,327.92214,4.165250143
228,328.51738,4.164599872
231,329.11829,4.16385011
234,329.72281,4.164424816
237,330.33052,4.164874841
240,330.94176,4.164424816
243,331.55481,4.164175035
246,332.17271,4.16332494
249,332.79038,4.161974863
252,333.41205,4.161775038
255,334.03548,4.162024819
258,334.66038,4.162625133
261,335.2879,4.162675089
264,335.91914,4.162824958
267,336.5489,4.16332494
270,337.18248,4.163874878
273,337.81852,4.16502513
276,338.45505,4.166099818
279,339.09662,4.166975101
282,339.73781,4.166224918
285,340.38071,4.165724936
288,341.02314,4.166274874
291,341.66648,4.167750052
294,342.31295,4.168925072
297,342.95995,4.169325141
300,343.607,4.168925072
303,344.25386,4.167624951
306,344.90381,4.166549843
309,345.55148,4.165949949
312,346.19967,4.165774893
315,346.85143,4.165824849
318,347.5021,4.165250143
321,348.15386,4.165125042
324,348.80914,4.164900029
327,349.46186,4.161299825
330,350.11695,4.162575177
333,350.77305,4.16894984
336,351.42724,4.169925035
339,352.08357,4.168775203
342,352.73957,4.16777482
345,353.397,4.166750088
348,354.05433,4.165975137
351,354.71348,4.165800081
354,355.37157,4.165999905
357,356.03167,4.166150194
360,356.69276,4.166700132
363,357.35419,4.167975064
366,358.01652,4.167975064
369,358.67919,4.167449895
372,359.3421,4.166674944
375,360.00538,4.16620015
378,360.67014,4.165850037
381,361.33428,4.164450004
384,361.99967,4.163225027
387,362.66581,4.163549953
390,363.3299,4.164049934
393,363.995,4.164149847
396,364.66114,4.163950022
399,365.32529,4.163424852
402,365.99143,4.162824958
405,366.65676,4.163000015
408,367.32133,4.163625097
411,367.987,4.164149847
414,368.65052,4.164575104
417,369.31457,4.164700205
420,369.97648,4.164350091
423,370.63738,4.164750161
426,371.29924,4.165350055
429,371.961,4.165075086
432,372.62286,4.164649829
435,373.28495,4.164599872
438,373.9459,4.164199803
441,374.60648,4.163575141
444,375.26633,4.163874878
447,375.92371,4.164424816
450,376.58114,4.164874841
453,377.23681,4.165525112
456,377.891,4.166274874
459,378.54486,4.166750088
462,379.19843,4.16685
465,379.85152,4.166300062
468,380.50352,4.166049862
471,381.15429,4.166549843
474,381.805,4.167224882
477,382.45343,4.165949949
480,383.10057,4.164025166
483,383.74543,4.163599909
486,384.38748,4.164774929
489,385.033,4.164850073
492,385.67571,4.164300135
495,386.31776,4.165625024
498,386.96138,4.167449895
501,387.6001,4.166975101
504,388.23843,4.165625024
507,388.876,4.164475192
510,389.51195,4.164049934
513,390.14724,4.164199803
516,390.78381,4.162850146
519,391.41886,4.159624823
522,392.05076,4.161175144
525,392.68429,4.16554988
528,393.31119,4.165850037
531,393.93914,4.165449967
534,394.56814,4.165724936
537,395.19438,4.166475119
540,395.82133,4.166425163
543,396.44719,4.166324831
546,397.0699,4.1665998
549,397.69619,4.166800044
552,398.32133,4.16685
555,398.94533,4.166700132
558,399.56686,4.166174962
561,400.18495,4.166350019
564,400.80252,4.166274874
567,401.41929,4.165999905
570,402.03638,4.16554988
573,402.65424,4.165449967
576,403.27043,4.165499924
579,403.88581,4.165075086
582,404.50057,4.164824885
585,405.1139,4.16502513
588,405.7269,4.165625024
591,406.33781,4.165575068
594,406.94771,4.164324903
597,407.55795,4.163499996
600,408.16714,4.163824922
603,408.77471,4.163499996
606,409.37962,4.162974827
609,409.984,4.163374896
612,410.58714,4.164824885
615,411.189,4.166174962
618,411.79081,4.165525112
621,412.38981,4.163774965
624,412.98981,4.162850146
627,413.58829,4.164350091
630,414.18691,4.165274911
633,414.78281,4.163900066
636,415.37948,4.163000015
639,415.97281,4.162950058
642,416.56538,4.163099927
645,417.15914,4.163225027
648,417.74962,4.163374896
651,418.33886,4.163950022
654,418.93048,4.164525148
657,419.51848,4.165049898
660,420.10386,4.165324867
663,420.68929,4.165125042
666,421.27148,4.164949986
669,421.85252,4.164800117
672,422.43419,4.164525148
675,423.01448,4.164224991
678,423.59591,4.164099891
681,424.17476,4.164075122
684,424.75357,4.164250179
687,425.32867,4.164525148
690,425.90486,4.164224991
693,426.47819,4.163649865
696,427.04862,4.163225027
699,427.61886,4.163274984
702,428.1879,4.163274984
705,428.75624,4.163274984
708,429.32357,4.163400084
711,429.89,4.163125115
714,430.45405,4.162249832
717,431.01681,4.161649938
720,431.577,4.160375005
723,432.13814,4.158399846
726,432.69662,4.166499887
729,433.25233,4.165599836
732,433.81186,4.164874841
735,434.36924,4.164675017
738,434.92662,4.164700205
741,435.48391,4.164049934
744,436.03838,4.162625133
747,436.59091,4.161649938
750,437.14257,4.161450113
753,437.69319,4.162199876
756,438.24248,4.162874914
759,438.7919,4.161850182
762,439.33824,4.159500142
765,439.88448,4.160600018
768,440.43119,4.162599945
771,440.97629,4.16057483
774,441.52171,4.159500142
777,442.065,4.159050116
780,442.6081,4.159275129
783,443.14838,4.16005008
786,443.68719,4.161000087
789,444.22705,4.161024856
792,444.76386,4.160100036
795,445.30186,4.159875023
798,445.83995,4.160424961
801,446.37772,4.160625206
804,446.91357,4.160424961
807,447.44686,4.159574866
810,447.98048,4.15887506
813,448.51357,4.159225173
816,449.04719,4.16005008
819,449.58129,4.15992498
822,450.11319,4.158775147
825,450.64148,4.157499795
828,451.17067,4.156700076
831,451.69862,4.156174906
834,452.2251,4.155800025
837,452.75614,4.155650156
840,453.28281,4.156100182
843,453.80981,4.155899937
846,454.338,4.154650193
849,454.86138,4.154200167
852,455.38695,4.15377491
855,455.91486,4.152250196
858,456.44052,4.150924887
861,456.96729,4.151125132
864,457.4909,4.152175052
867,458.01362,4.152175052
870,458.53438,4.151874895
873,459.05624,4.151950039
876,459.57824,4.151974807
879,460.10043,4.150675106
882,460.62057,4.149950112
885,461.13986,4.151300189
888,461.65943,4.151999995
891,462.1759,4.148574847
894,462.69467,4.144324792
897,463.21276,4.143599797
900,463.73171,4.147024945
903,464.25009,4.146425051
906,464.7669,4.14212504
909,465.28314,4.140049968
912,465.79671,4.139950056
915,466.30843,4.140499994
918,466.82333,4.140625094
921,467.33605,4.140575138
924,467.8491,4.140149881
927,468.36329,4.138450111
930,468.87367,4.136399807
933,469.38381,4.135725189
936,469.89495,4.13610007
939,470.40509,4.135950202
942,470.91567,4.135150063
945,471.42767,4.134524981
948,471.93957,4.134150099
951,472.44957,4.133949855
954,472.958,4.134174867
957,473.46609,4.134050187
960,473.97238,4.132349997
963,474.48162,4.130599851
966,474.99114,4.129450018
969,475.50076,4.128924849
972,476.00881,4.12890008
975,476.51548,4.128800168
978,477.02029,4.127974841
981,477.52576,4.12655004
984,478.03143,4.125524888
987,478.53576,4.125275107
990,479.04076,4.12484985
993,479.54605,4.123449817
996,480.0491,4.122925067
999,480.55243,4.122674866
1002,481.05657,4.122700054
1005,481.55976,4.121999828
1008,482.06367,4.121375165
1011,482.56591,4.120099813
1014,483.06733,4.118149842
1017,483.56729,4.118075118
1020,484.0679,4.119575063
1023,484.57019,4.119250138
1026,485.072,4.117675048
1029,485.57057,4.116649897
1032,486.07048,4.115749845
1035,486.56814,4.114375
1038,487.06571,4.113275124
1041,487.56619,4.113124836
1044,488.06562,4.112875055
1047,488.56595,4.112725186
1050,489.0669,4.112425029
1053,489.56571,4.11215006
1056,490.06281,4.112050148
1059,490.56043,4.11189986
1062,491.05867,4.111475022
1065,491.55891,4.11044987
1068,492.05967,4.109224894
1071,492.55848,4.108125018
1074,493.05671,4.107075098
1077,493.55467,4.106049947
1080,494.05148,4.105149895
1083,494.54848,4.104450089
1086,495.04462,4.104024831
1089,495.53781,4.1031252
1092,496.033,4.10207486
1095,496.52667,4.102175193
1098,497.02319,4.102175193
1101,497.52005,4.100475003
1104,498.01557,4.098049818
1107,498.5119,4.097324823
1110,499.00695,4.09749988
1113,499.50205,4.097124999
1116,499.99419,4.095199796
1119,500.48967,4.093900095
1122,500.98529,4.09422502
1125,501.47862,4.094999971
1128,501.97633,4.09527494
1131,502.47224,4.095374852
1134,502.96581,4.095724966
1137,503.46057,4.096499916
1140,503.95386,4.097099811
1143,504.44619,4.096674973
1146,504.9399,4.095700197
1149,505.43348,4.094350121
1152,505.92833,4.092775031
1155,506.42243,4.091149985
1158,506.91652,4.090550091
1161,507.41071,4.090524903
1164,507.90195,4.09017521
1167,508.39605,4.089600084
1170,508.89048,4.088825133
1173,509.38614,4.088100138
1176,509.88119,4.087200087
1179,510.37567,4.08520016
1182,510.86762,4.082750207
1185,511.35891,4.08232495
1188,511.85372,4.082199849
1191,512.34714,4.081649911
1194,512.84095,4.081374942
1197,513.33424,4.081900112
1200,513.82586,4.081824968
1203,514.31843,4.08010001
1206,514.81162,4.077574913
1209,515.30543,4.076574949
1212,515.7979,4.07617488
1215,516.29043,4.076325168
1218,516.78224,4.07577481
1221,517.27457,4.075150148
1224,517.7659,4.074774847
1227,518.25786,4.074750078
1230,518.75129,4.07460021
1233,519.24262,4.073499914
1236,519.73614,4.073350045
1239,520.22805,4.073925171
1242,520.71809,4.073975128
1245,521.21086,4.074350009
1248,521.704,4.076250024
1251,522.19714,4.077899838
1254,522.69181,4.078074894
1257,523.18381,4.077150075
1260,523.67514,4.075925099
1263,524.16962,4.075624942
1266,524.66224,4.07512496
1269,525.15667,4.073774883
1272,525.65143,4.070774992
1275,526.14362,4.069675116
1278,526.63671,4.06909999
1281,527.12914,4.068950122
1284,527.62143,4.069249859
1287,528.11286,4.069275047
1290,528.60505,4.068725109
1293,529.09772,4.065475017
1296,529.59191,4.065074948
1299,530.08472,4.072649819
1302,530.57914,4.070575167
1305,531.07429,4.068225127
1308,531.56791,4.067424988
1311,532.06086,4.066325112
1314,532.55271,4.065600118
1317,533.04457,4.064700066
1320,533.53819,4.064999804
1323,534.03186,4.064999804
1326,534.52786,4.064774791
1329,535.02077,4.06399984
1332,535.51372,4.063399946
1335,536.00815,4.063750059
1338,536.50248,4.063774827
1341,536.99567,4.062724907
1344,537.48953,4.061824856
1347,537.98186,4.061475163
1350,538.47372,4.060975181
1353,538.9661,4.060975181
1356,539.46053,4.06059988
1359,539.95457,4.059950029
1362,540.44795,4.059750205
1365,540.94138,4.05890011
1368,541.43476,4.05679985
1371,541.92662,4.056124812
1374,542.41962,4.056175188
1377,542.91352,4.056375013
1380,543.40609,4.057249876
1383,543.89862,4.05797487
1386,544.39072,4.055375049
1389,544.8831,4.052574983
1392,545.37648,4.049774917
1395,545.87048,4.0518248
1398,546.36314,4.055974943
1401,546.85662,4.05574993
1404,547.35014,4.053724815
1407,547.84405,4.052549795
1410,548.33719,4.05222487
1413,548.83191,4.052100189
1416,549.32719,4.051899945
1419,549.82072,4.051150182
1422,550.31505,4.049774917
1425,550.80781,4.048675041
1428,551.29914,4.047400108
1431,551.79195,4.046450101
1434,552.28566,4.045775063
1437,552.77976,4.045924931
1440,553.27514,4.046275044
1443,553.76976,4.04685017
1446,554.26357,4.047149908
1449,554.75824,4.046099988
1452,555.25319,4.044325073
1455,555.74667,4.043650035
1458,556.24076,4.043275154
1461,556.73286,4.041899889
1464,557.22495,4.040224887
1467,557.71781,4.039575036
1470,558.20986,4.039099823
1473,558.70347,4.037874846
1476,559.19766,4.036099932
1479,559.68905,4.034074817
1482,560.18419,4.032000165
1485,560.67819,4.027700154
1488,561.17214,4.027724922
1491,561.66681,4.032474959
1494,562.15895,4.033424966
1497,562.65167,4.034874956
1500,563.14676,4.032950173
1503,563.64157,4.029074999
1506,564.13643,4.027449953
1509,564.63138,4.026250165
1512,565.12462,4.025
1515,565.61776,4.023524823
1518,566.11095,4.021500128
1521,566.60452,4.019349912
1524,567.09629,4.018049791
1527,567.58905,4.01715016
1530,568.082,4.015149813
1533,568.57576,4.012225066
1536,569.071,4.010199951
1539,569.56557,4.008799918
1542,570.06091,4.007499798
1545,570.55753,4.007425073
1548,571.05291,4.007299973
1551,571.54776,4.006899903
1554,572.04338,4.007349929
1557,572.5361,4.007275205
1560,573.02953,4.007150104
1563,573.52505,4.006475066
1566,574.01871,4.004075069
1569,574.51476,3.999600001
1572,575.01024,3.997074904
1575,575.50485,3.994674908
1578,576.00276,3.992774893
1581,576.49962,3.990750197
1584,576.99581,3.988924907
1587,577.49129,3.987474918
1590,577.98552,3.985899828
1593,578.4801,3.984349927
1596,578.97372,3.982849981
1599,579.46881,3.980300116
1602,579.96314,3.977275037
1605,580.45667,3.976225117
1608,580.95209,3.976225117
1611,581.44672,3.97515001
1614,581.94238,3.973375095
1617,582.43786,3.97134998
1620,582.93286,3.968575102
1623,583.42795,3.965950093
1626,583.92195,3.963650008
1629,584.41862,3.961574937
1632,584.91262,3.959549822
1635,585.40785,3.957125057
1638,585.90195,3.95459996
1641,586.39495,3.952400208
1644,586.88748,3.949875111
1647,587.38105,3.945999937
1650,587.877,3.942749846
1653,588.37343,3.941074844
1656,588.87095,3.938975004
1659,589.36742,3.936750064
1662,589.86366,3.933800129
1665,590.35809,3.931725058
1668,590.85209,3.928899804
1671,591.34619,3.925349975
1674,591.84076,3.921250208
1677,592.3359,3.917600047
1680,592.83138,3.914399912
1683,593.3261,3.910750171
1686,593.82071,3.907850192
1689,594.31529,3.905375052
1692,594.81024,3.90277481
1695,595.30467,3.898250206
1698,595.79876,3.892749986
1701,596.29505,3.887324911
1704,596.78914,3.881875067
1707,597.28367,3.877274899
1710,597.77871,3.872524862
1713,598.272,3.867324799
1716,598.76686,3.861599987
1719,599.26057,3.856250056
1722,599.75495,3.851249818
1725,600.24986,3.846500201
1728,600.74286,3.840125118
1731,601.23633,3.83407496
1734,601.72976,3.827649921
1737,602.22371,3.821174926
1740,602.71857,3.814500106
1743,603.21409,3.806950003
1746,603.70933,3.799475044
1749,604.20433,3.792699892
1752,604.69928,3.784374838
1755,605.19443,3.773400007
1758,605.68862,3.762850013
1761,606.18495,3.754399859
1764,606.6799,3.745100029
1767,607.17586,3.733950141
1770,607.67214,3.72519983
1773,608.16714,3.715925189
1776,608.66209,3.704700157
1779,609.15495,3.69327488
1782,609.64752,3.681674966
1785,610.14157,3.669025133
1788,610.63581,3.656975194
1791,611.13229,3.644874878
1794,611.62686,3.632999996
1797,612.12219,3.622499958
1800,612.61891,3.59682499
1803,613.11343,3.585350177
1806,613.60938,3.575525178
1809,614.10372,3.564475202
1812,614.59871,3.532674932
1815,615.09438,3.512825109
1818,615.59024,3.494699824
1821,616.08529,3.477925036
1824,616.58124,3.461599854
1827,617.07514,3.445175179
1830,617.56886,3.428750084
1833,618.06548,3.407399896
1836,618.56291,3.386950178
1839,619.06043,3.365574802
1842,619.55762,3.343900108
1845,620.05291,3.322750164
1848,620.54662,3.300649793
1851,621.03919,3.277549878
1854,621.53467,3.254975133
1857,622.02991,3.228725039
1860,622.52562,3.204275048
1863,623.02024,3.180225126
1866,623.51524,3.154375101
1869,624.00838,3.127800082
1872,624.50148,3.098450185
1875,624.99543,3.070125019
1878,625.49024,3.041249916
1881,625.98386,3.014274827
1884,626.481,2.984675149
1887,626.97691,2.95037497
1890,627.47081,2.919200202
1893,627.96453,2.898999846
1896,628.45767,2.864075005
1899,628.9499,2.829899927
1902,629.44481,2.797899832
1905,629.94038,2.764450168
1908,630.43619,2.731824991
1911,630.93091,2.696749862
1914,631.42567,2.662824984
1917,631.91986,2.625574871
1920,632.41343,2.588349945
1923,632.90852,2.55177487
1926,633.40333,2.514525177
1929,633.8981,2.477074819
1932,634.3941,2.436724902
1935,634.8899,2.398125132
1938,635.38676,2.355850012
1941,635.88219,2.317175098
1944,636.37838,2.27827517
1947,636.87357,2.24020015
1950,637.36828,2.200749865
1953,637.86424,2.161399912
1956,638.36095,2.120874938
1959,638.85662,2.080174909
1962,639.35315,2.03972508
1965,639.84986,1.999250063
1968,640.34443,1.959950066
1971,640.84043,1.917975103
1974,641.33614,1.87457492
1977,641.83048,1.833824934
1980,642.3259,1.792774791
1983,642.82329,1.751850168
1986,643.32076,1.710075031
1989,643.81767,1.667650043
1992,644.31515,1.626149874
1995,644.8101,1.585224831
1998,645.304,1.540249978
2001,645.79933,1.500924793
2004,646.29343,1.465699795
2007,646.787,1.425425023
2010,647.28224,1.385975157
2013,647.77595,1.343050188
2016,648.26924,1.307375164
2019,648.76272,1.264100081
2022,649.25796,1.226574998
2025,649.75152,1.186950076
2028,650.24581,1.149900208
2031,650.74019,1.111049817
2034,651.23281,1.073874847
2037,651.72652,1.036575198
2040,652.22,1.0026499
2043,652.71362,0.966125201
2046,653.20643,0.932275048
2049,653.69848,0.893349933
2052,654.19186,0.85870006
2055,654.68533,0.825249977
2058,655.17976,0.7926248
2061,655.67519,0.759275048
2064,656.16967,0.728400018
2067,656.66543,0.69670008
2070,657.16048,0.665875006
2073,657.65643,0.635149844
2076,658.15195,0.606624853
2079,658.64872,0.578649801
2082,659.14481,0.553175078
2085,659.64219,0.52632509
2088,660.141,0.499049844
2091,660.64057,0.473499976
2094,661.14114,0.449274998
2097,661.64138,0.427675028
2100,662.14186,0.405099863
2103,662.64181,0.382575075
2106,663.13967,0.360824817
2109,663.64005,0.340775169
2112,664.14067,0.321175127
2115,664.64162,0.304449875
2118,665.14338,0.287649899
2121,665.64381,0.273675176
2124,666.14405,0.257300038
2127,666.64357,0.244499916
2130,667.14305,0.231199812
2133,667.6431,0.220525138
2136,668.14162,0.201200065
2139,668.64095,0.190174857
2142,669.14071,0.18084984
2145,669.64076,0.17364985
2148,670.14333,0.159325015
2151,670.64424,0.150199822
2154,671.14342,0.142100201
2157,671.64547,0.135124804
2160,672.14504,0.125474862
2163,672.64547,0.115999976
2166,673.146,0.107949891
2169,673.64586,0.100699945
2172,674.14486,0.093975169
2175,674.64305,0.087749954
2178,675.14286,0.080225039
2181,675.6429,0.072800037
2184,676.14195,0.067675118
2187,676.64205,0.062574968
2190,677.14252,0.056374942
2193,677.64248,0.051050199
2196,678.14229,0.046824912
2199,678.64181,0.042450176
2202,679.14181,0.038324801
2205,679.64133,0.034950029
2208,680.1411,0.03245012
2211,680.64081,0.029749967
2214,681.14024,0.026949901
2217,681.63981,0.021974851
2220,682.13981,0.018124865
2223,682.64167,0.017724796
2226,683.1421,0.018150053
2229,683.6421,0.017050177
2232,684.14353,0.005375119
2235,684.64172,0.007249946
2238,685.14067,0.008524879
2241,685.63995,0.004624937
2244,686.13929,0.003024995
2247,686.63872,0.003200009
2250,687.13938,0.003699991
2253,687.63967,0.003400002
2256,688.13757,0.002349998
2259,688.63805,0.000850011
2262,689.1351,-0.000575
2265,689.63324,-0.002224982
2268,690.13248,-0.003799988
2271,690.62957,-0.005574944
2274,691.12824,-0.007249946
2277,691.62638,-0.007950172
2280,692.12376,-0.007950172
