Time (s),Mass (g),HRR (kW/m2)
0,96.28,4
1,96.26,7.4
2,96.25,11.15
3,96.24,17.08
4,96.22,26.81
5,96.2,37.3
6,96.17,49.29
7,96.16,62.51
8,96.14,76.46
9,96.1,90.71
10,96.03,106.69
11,95.91,119.4
12,95.84,132.39
13,95.73,143.95
14,95.6,150.31
15,95.48,159.29
16,95.36,162.68
17,95.22,165.61
18,95.11,166.33
19,94.98,163.94
20,94.85,163.4
21,94.74,157.69
22,94.65,155.06
23,94.54,150.84
24,94.44,145.45
25,94.32,142.63
26,94.2,139.39
27,94.11,135.87
28,93.99,132.72
29,93.92,129.1
30,93.81,126.55
31,93.7,124.84
32,93.62,122.74
33,93.52,120.59
34,93.44,119.15
35,93.35,116.69
36,93.27,115.93
37,93.17,115.3
38,93.09,112.6
39,93,111.26
40,92.92,111.47
41,92.83,108.88
42,92.75,107.75
43,92.67,107.09
44,92.6,106.21
45,92.52,105.43
46,92.43,104.25
47,92.36,102.45
48,92.28,101.12
49,92.2,102.08
50,92.13,99.8
51,92.05,98.83
52,91.99,98.54
53,91.9,97.49
54,91.83,97.57
55,91.75,94.75
56,91.7,95.58
57,91.63,94.68
58,91.56,94.25
59,91.48,93.98
60,91.4,93.41
61,91.35,92.4
62,91.26,92.28
63,91.21,91.69
64,91.14,91.56
65,91.07,90.01
66,91,90
67,90.92,90.29
68,90.88,89.6
69,90.79,88.76
70,90.73,88.29
71,90.67,88.31
72,90.59,85.55
73,90.53,87.76
74,90.46,85.52
75,90.41,86.1
76,90.32,84.63
77,90.27,84.45
78,90.21,84.15
79,90.14,84.42
80,90.09,82.1
81,90,82.63
82,89.96,82.4
83,89.9,82.13
84,89.84,81.45
85,89.78,81.3
86,89.71,80.64
87,89.64,81.24
88,89.6,80.82
89,89.54,79.93
90,89.48,80.47
91,89.42,78.65
92,89.35,79.97
93,89.3,78.89
94,89.24,79.04
95,89.18,78.18
96,89.12,78.63
97,89.05,79.04
98,89,77.23
99,88.94,77.31
100,88.89,78.16
101,88.84,76.98
102,88.78,76.81
103,88.71,76
104,88.67,77.9
105,88.61,76.29
106,88.54,77.06
107,88.5,75.38
108,88.42,76.07
109,88.37,75.27
110,88.32,75.27
111,88.27,75
112,88.2,75.4
113,88.15,74.02
114,88.1,75.53
115,88.02,73.61
116,87.98,75.04
117,87.93,74.64
118,87.87,74.26
119,87.82,74.07
120,87.77,73.75
121,87.7,73.75
122,87.65,73.47
123,87.59,73.42
124,87.55,73.12
125,87.49,73.25
126,87.42,72.79
127,87.37,73.29
128,87.33,71.27
129,87.27,73.16
130,87.22,71.1
131,87.17,73.69
132,87.1,70.65
133,87.06,72.07
134,86.99,71.58
135,86.95,71.64
136,86.9,71.63
137,86.84,71.42
138,86.79,71.17
139,86.73,71.22
140,86.68,70.8
141,86.64,71.06
142,86.58,70.5
143,86.53,71.13
144,86.48,70.34
145,86.41,70.46
146,86.37,70.22
147,86.31,70.07
148,86.25,70.01
149,86.22,70.39
150,86.16,70.22
151,86.11,69.24
152,86.06,69.08
153,86.01,68.79
154,85.95,69.01
155,85.9,68.99
156,85.86,69.56
157,85.8,67.59
158,85.75,68.66
159,85.7,68.28
160,85.64,69.1
161,85.6,68.3
162,85.54,67.99
163,85.5,67.39
164,85.44,68.42
165,85.39,68.06
166,85.33,67.41
167,85.29,67.85
168,85.23,67.59
169,85.18,67.2
170,85.13,67.62
171,85.07,66.99
172,85.02,68.09
173,84.99,67.09
174,84.92,67.76
175,84.87,67.49
176,84.82,67.81
177,84.77,67.66
178,84.73,68.45
179,84.68,67.73
180,84.63,68.04
181,84.58,67.22
182,84.53,67.96
183,84.47,67.66
184,84.42,67.86
185,84.37,68.13
186,84.32,68.08
187,84.27,68.47
188,84.22,68.03
189,84.17,67.2
190,84.13,67.05
191,84.06,68.98
192,84.01,68.53
193,83.97,67.29
194,83.92,67.51
195,83.86,67.52
196,83.82,67.1
197,83.76,67.63
198,83.7,66.19
199,83.67,66.12
200,83.62,66.06
201,83.56,64.98
202,83.51,66.48
203,83.46,65.29
204,83.4,64.94
205,83.35,64.98
206,83.31,64.82
207,83.26,65.51
208,83.21,63.8
209,83.16,64.91
210,83.09,63.29
211,83.06,64.07
212,83.01,63.24
213,82.95,64.85
214,82.9,63.93
215,82.85,64
216,82.8,64.51
217,82.76,63.42
218,82.71,64.35
219,82.66,64.44
220,82.6,63.65
221,82.56,64.7
222,82.5,63.71
223,82.45,64.63
224,82.39,64.09
225,82.35,64.12
226,82.3,64.49
227,82.26,64.01
228,82.19,64.4
229,82.15,64.43
230,82.1,65.23
231,82.04,65.33
232,81.99,66.53
233,81.95,65.84
234,81.89,65.52
235,81.83,67.31
236,81.77,66.43
237,81.72,66.33
238,81.69,66.94
239,81.61,66.47
240,81.58,66.5
241,81.52,66.45
242,81.46,66.77
243,81.42,65.67
244,81.35,66.97
245,81.3,65.33
246,81.26,66.12
247,81.19,65.03
248,81.15,66.23
249,81.09,64.82
250,81.02,64.86
251,80.98,65.96
252,80.93,65.3
253,80.88,65.65
254,80.83,65.65
255,80.77,65.93
256,80.71,65.3
257,80.66,66.64
258,80.61,66.16
259,80.55,66.19
260,80.51,66.84
261,80.44,67.15
262,80.38,67.08
263,80.34,67.86
264,80.27,67.08
265,80.22,67.88
266,80.16,67.63
267,80.11,67.59
268,80.05,68.91
269,79.99,68.64
270,79.94,67.94
271,79.89,68.57
272,79.82,68.57
273,79.76,68.53
274,79.7,68.48
275,79.65,68.51
276,79.6,68.2
277,79.53,68.42
278,79.48,69.15
279,79.42,69.31
280,79.36,68.92
281,79.31,68.51
282,79.24,68.77
283,79.19,69.07
284,79.14,69.42
285,79.06,69.44
286,79.02,68.94
287,78.97,67.87
288,78.92,69.05
289,78.84,68.31
290,78.79,69.02
291,78.73,67.51
292,78.66,68.33
293,78.62,68.2
294,78.53,67.71
295,78.49,68.73
296,78.43,68.74
297,78.35,67.81
298,78.31,67.49
299,78.26,67.99
300,78.2,67.72
301,78.13,67.31
302,78.06,67.65
303,78.01,67.1
304,77.96,66.65
305,77.9,66.66
306,77.84,67.02
307,77.78,66.35
308,77.72,66.57
309,77.66,67.29
310,77.61,67.01
311,77.54,66.36
312,77.5,67.42
313,77.44,66.65
314,77.36,66.46
315,77.32,67.38
316,77.26,67.2
317,77.19,67.98
318,77.13,66.94
319,77.07,66.5
320,77.02,67
321,76.97,66.24
322,76.91,66.24
323,76.85,66.56
324,76.78,66.44
325,76.72,66.88
326,76.67,67.25
327,76.6,66.1
328,76.55,67.45
329,76.5,66.63
330,76.42,66.9
331,76.36,66.51
332,76.32,66.51
333,76.26,66.55
334,76.2,66.95
335,76.16,67.08
336,76.08,67.02
337,76.02,67.06
338,75.97,66.53
339,75.91,66.91
340,75.86,67.15
341,75.8,67.83
342,75.72,67.21
343,75.68,66.72
344,75.63,67.13
345,75.56,66.21
346,75.49,67.32
347,75.42,65.77
348,75.36,66.55
349,75.31,67.18
350,75.25,67.27
351,75.2,67.76
352,75.12,67.13
353,75.06,67.36
354,75.01,68.16
355,74.96,66.91
356,74.89,68.08
357,74.84,67.37
358,74.77,68.44
359,74.7,68.66
360,74.66,67.39
361,74.58,69.02
362,74.53,68.82
363,74.48,69.17
364,74.4,68.81
365,74.36,68.33
366,74.29,69.62
367,74.23,69.03
368,74.17,68.87
369,74.09,69.89
370,74.05,69.51
371,73.99,69.76
372,73.93,69.41
373,73.87,69.02
374,73.8,69.46
375,73.74,68.14
376,73.68,69.94
377,73.63,69.34
378,73.56,69.44
379,73.52,69.17
380,73.43,69.88
381,73.39,68.9
382,73.32,70.06
383,73.26,68.65
384,73.2,69.8
385,73.12,69.23
386,73.08,69.65
387,73.02,69.12
388,72.95,68.36
389,72.9,68.76
390,72.83,67.61
391,72.76,69.53
392,72.71,68.23
393,72.65,68.7
394,72.6,68.64
395,72.53,68.96
396,72.45,67.64
397,72.41,68.72
398,72.36,67.94
399,72.28,68.86
400,72.24,68.61
401,72.17,69.11
402,72.11,69.26
403,72.05,68.62
404,71.98,69.54
405,71.93,69.48
406,71.87,69.76
407,71.8,69.75
408,71.75,69.69
409,71.68,69.85
410,71.62,69.3
411,71.56,69.65
412,71.49,70.13
413,71.44,69.8
414,71.39,70.32
415,71.32,69.69
416,71.27,69.69
417,71.18,69.26
418,71.12,70
419,71.07,69.64
420,71.03,70.26
421,70.95,69.29
422,70.89,69.35
423,70.83,70.04
424,70.77,68.63
425,70.72,69.79
426,70.65,69.08
427,70.59,69.5
428,70.51,69.83
429,70.46,69.75
430,70.41,68.83
431,70.34,69.11
432,70.29,68.11
433,70.22,68.5
434,70.15,68.6
435,70.11,68.58
436,70.04,67.44
437,69.99,68.35
438,69.94,66.72
439,69.86,68.4
440,69.8,66.89
441,69.74,68.04
442,69.68,67.93
443,69.62,68.05
444,69.57,67.72
445,69.49,68.17
446,69.44,68.75
447,69.39,67.57
448,69.32,68.48
449,69.27,68.43
450,69.19,68.53
451,69.14,68.66
452,69.09,68.82
453,69.03,68.15
454,68.97,68.15
455,68.89,68.7
456,68.84,69.03
457,68.78,68.15
458,68.72,68.93
459,68.67,69.07
460,68.61,69.05
461,68.53,69.11
462,68.48,68.9
463,68.43,69.74
464,68.36,69.37
465,68.31,68.7
466,68.26,69.44
467,68.19,69.05
468,68.12,69.47
469,68.06,69.94
470,68.01,68.87
471,67.95,70.48
472,67.88,69.47
473,67.83,69.97
474,67.77,68.5
475,67.71,69.27
476,67.65,68.38
477,67.58,69.43
478,67.53,68.43
479,67.47,69.1
480,67.4,68.71
481,67.35,68.99
482,67.28,68.57
483,67.2,68.64
484,67.16,67.47
485,67.1,68.38
486,67.04,67.44
487,67,68.84
488,66.93,67.48
489,66.87,68.71
490,66.8,68.46
491,66.74,68.71
492,66.69,68.7
493,66.63,67.74
494,66.56,67.89
495,66.52,68.48
496,66.44,68.51
497,66.4,68.6
498,66.34,68.4
499,66.26,68.45
500,66.22,68.07
501,66.17,68.45
502,66.1,67.51
503,66.04,68.65
504,65.97,68.34
505,65.91,67.68
506,65.85,68.84
507,65.8,68.13
508,65.73,68.82
509,65.68,68.43
510,65.62,69.22
511,65.56,69.06
512,65.5,68.35
513,65.43,69.7
514,65.38,68.73
515,65.32,69.65
516,65.26,68.7
517,65.19,69.47
518,65.13,69.32
519,65.08,69.48
520,65.03,69.4
521,64.95,69.8
522,64.9,69.24
523,64.85,68.3
524,64.78,68.25
525,64.72,68.43
526,64.65,68.82
527,64.58,68.71
528,64.54,68.1
529,64.49,67.23
530,64.42,68.64
531,64.36,67.39
532,64.28,67.46
533,64.24,67.58
534,64.19,67.68
535,64.12,67.9
536,64.07,66.39
537,64,68.35
538,63.94,66.56
539,63.88,67.31
540,63.82,67.51
541,63.77,67.36
542,63.72,66.98
543,63.64,67.14
544,63.59,66.7
545,63.52,68.54
546,63.47,66.33
547,63.41,68.23
548,63.34,67.49
549,63.27,67.45
550,63.23,68.04
551,63.18,68.03
552,63.12,68.83
553,63.06,69.14
554,63,69.05
555,62.93,69.43
556,62.88,69.12
557,62.81,69.54
558,62.77,69.97
559,62.72,69.97
560,62.63,70.28
561,62.59,69.01
562,62.52,69.32
563,62.47,69.65
564,62.41,69.92
565,62.34,69.49
566,62.3,69.8
567,62.24,69.66
568,62.17,70.43
569,62.11,69.56
570,62.05,68.85
571,61.98,69.83
572,61.93,69.44
573,61.89,68.84
574,61.82,69.71
575,61.77,69.29
576,61.69,68.89
577,61.63,68.68
578,61.59,69.13
579,61.51,68.7
580,61.46,69.41
581,61.4,68.68
582,61.33,68.55
583,61.29,68.48
584,61.22,67.7
585,61.17,68.4
586,61.11,67.04
587,61.04,68.33
588,60.99,67.94
589,60.93,67.43
590,60.87,68.6
591,60.83,67.55
592,60.74,68.04
593,60.69,68.04
594,60.62,67.58
595,60.58,67.94
596,60.52,68.03
597,60.47,68.5
598,60.41,68.99
599,60.33,68.51
600,60.29,68.65
601,60.23,68.62
602,60.17,68.15
603,60.11,69.22
604,60.04,69.18
605,59.99,69.32
606,59.93,69.24
607,59.87,70.26
608,59.82,69.15
609,59.76,70.28
610,59.7,70.66
611,59.66,71.24
612,59.58,71.19
613,59.53,71.71
614,59.48,71.42
615,59.4,71.54
616,59.34,72.18
617,59.3,70.45
618,59.24,71.93
619,59.17,71.93
620,59.12,71.15
621,59.06,70.76
622,58.99,70.69
623,58.94,70.6
624,58.87,70.09
625,58.82,70.32
626,58.76,70.42
627,58.69,69.27
628,58.65,70.04
629,58.59,69
630,58.53,69.7
631,58.47,69.45
632,58.4,69.75
633,58.35,69.37
634,58.3,69.83
635,58.23,69.22
636,58.17,68.84
637,58.1,68.96
638,58.05,68.84
639,57.99,68.03
640,57.94,69.37
641,57.87,68.98
642,57.82,69.22
643,57.76,69.13
644,57.69,69.52
645,57.65,69.26
646,57.58,69.6
647,57.53,70.19
648,57.48,69.45
649,57.4,70.37
650,57.36,70.11
651,57.3,70.63
652,57.24,71.28
653,57.19,70.13
654,57.12,71.9
655,57.06,71.9
656,57.01,70.68
657,56.94,72.17
658,56.89,71.58
659,56.83,71.1
660,56.75,71.84
661,56.69,71.07
662,56.65,71.49
663,56.6,70.6
664,56.53,71.3
665,56.47,70.7
666,56.4,69.62
667,56.36,71.58
668,56.31,70.47
669,56.24,70.47
670,56.19,70.49
671,56.12,69.71
672,56.07,70.14
673,56,70.17
674,55.93,69.68
675,55.89,69.63
676,55.83,69.29
677,55.77,69.18
678,55.72,68.79
679,55.66,69.33
680,55.6,69.42
681,55.54,70.27
682,55.47,70.02
683,55.43,69.72
684,55.37,68.62
685,55.33,70.03
686,55.26,69.93
687,55.2,69.49
688,55.14,68.72
689,55.08,68.61
690,55.03,68.75
691,54.96,68.92
692,54.91,68.99
693,54.85,69.19
694,54.78,68.8
695,54.73,69.42
696,54.68,68.55
697,54.62,68.98
698,54.57,69.14
699,54.48,70.46
700,54.45,69.41
701,54.38,70.81
702,54.33,70.18
703,54.28,70.46
704,54.22,70.53
705,54.15,70.49
706,54.09,71.76
707,54.04,71.15
708,53.99,71.06
709,53.92,71.98
710,53.86,70.17
711,53.8,71.2
712,53.75,71.88
713,53.69,72.65
714,53.63,72.21
715,53.58,71.98
716,53.52,71.58
717,53.45,71.96
718,53.4,71.48
719,53.35,72.91
720,53.29,72.91
721,53.23,72.67
722,53.15,71.84
723,53.11,73.11
724,53.06,71.66
725,52.99,72.68
726,52.94,71.84
727,52.88,70.89
728,52.81,71.27
729,52.75,71.47
730,52.71,72.12
731,52.66,71.08
732,52.59,71.19
733,52.52,71.36
734,52.45,70.66
735,52.4,71.12
736,52.36,70.15
737,52.28,70.92
738,52.23,70.39
739,52.18,71.67
740,52.11,71.49
741,52.06,70.99
742,51.99,72.04
743,51.95,71.93
744,51.89,71.74
745,51.82,72.24
746,51.77,71.47
747,51.72,72.27
748,51.66,71.15
749,51.61,72.6
750,51.53,72.24
751,51.48,72.58
752,51.42,73.47
753,51.37,73.14
754,51.3,73.92
755,51.26,73.01
756,51.2,73.19
757,51.12,73.67
758,51.08,74.23
759,51.03,73.23
760,50.96,73.92
761,50.9,73.4
762,50.83,73.24
763,50.78,73.24
764,50.72,74.39
765,50.66,73.7
766,50.62,73.66
767,50.54,72.44
768,50.49,73.89
769,50.43,72.89
770,50.37,73.53
771,50.31,73.54
772,50.26,74.16
773,50.18,72.8
774,50.13,73.31
775,50.09,71.65
776,50.03,72.79
777,49.96,71.92
778,49.92,73.39
779,49.83,72.53
780,49.79,73.3
781,49.73,73.54
782,49.66,72.63
783,49.62,73.6
784,49.55,73.37
785,49.49,74.02
786,49.43,73.68
787,49.36,74.25
788,49.31,74.58
789,49.26,73.8
790,49.19,75.05
791,49.14,73.67
792,49.07,74.63
793,49.02,73.17
794,48.96,74.55
795,48.88,75.02
796,48.83,73.31
797,48.78,73.6
798,48.73,75.02
799,48.66,75.11
800,48.62,74.61
801,48.53,74.86
802,48.48,75.02
803,48.43,75.02
804,48.37,74.32
805,48.31,74.96
806,48.24,74.48
807,48.18,74.78
808,48.13,74.38
809,48.06,75.75
810,48.01,75.6
811,47.96,75.37
812,47.89,74.83
813,47.84,74.75
814,47.77,74.75
815,47.71,75.49
816,47.66,74.72
817,47.59,76.1
818,47.52,75.1
819,47.47,75.04
820,47.42,74.6
821,47.36,75.11
822,47.29,74.72
823,47.21,75.31
824,47.16,74.66
825,47.11,75.15
826,47.05,74.98
827,47.01,75.42
828,46.93,75.07
829,46.86,75.11
830,46.8,75.32
831,46.75,74.56
832,46.69,75.41
833,46.63,76.14
834,46.57,76.12
835,46.52,75.53
836,46.45,77.14
837,46.4,75.68
838,46.33,77.15
839,46.27,77.16
840,46.2,76.92
841,46.15,77.79
842,46.09,77.42
843,46.03,78.5
844,45.96,77.74
845,45.89,78.88
846,45.84,78.06
847,45.79,79.29
848,45.72,78.51
849,45.66,79.46
850,45.58,78.02
851,45.54,78.69
852,45.48,79.16
853,45.41,79.47
854,45.35,79.33
855,45.28,79.65
856,45.22,78.37
857,45.16,78.76
858,45.1,78.79
859,45.03,78.55
860,44.96,78.4
861,44.89,79.06
862,44.85,79.21
863,44.78,79.72
864,44.72,78.6
865,44.66,78.6
866,44.59,79.69
867,44.53,78.89
868,44.48,79.46
869,44.41,78.16
870,44.35,79.65
871,44.28,78.85
872,44.22,79.31
873,44.17,79.87
874,44.1,79.87
875,44.04,79.94
876,43.96,79.14
877,43.9,79.58
878,43.85,80.03
879,43.78,79.85
880,43.72,80.04
881,43.65,80.79
882,43.58,81.17
883,43.54,79.99
884,43.46,80.75
885,43.4,81.08
886,43.35,81.51
887,43.26,81.08
888,43.21,81.86
889,43.14,81.82
890,43.08,82.58
891,43.03,81.71
892,42.95,83.44
893,42.9,83.07
894,42.82,83.54
895,42.77,82.76
896,42.7,83.38
897,42.62,83.1
898,42.58,83.48
899,42.5,84.24
900,42.43,84.96
901,42.37,84.22
902,42.29,84.52
903,42.25,84.6
904,42.18,84.64
905,42.12,84.84
906,42.04,84.07
907,41.98,83.69
908,41.92,85.57
909,41.85,84.09
910,41.79,84.98
911,41.7,83.95
912,41.64,84.5
913,41.59,84.56
914,41.52,84
915,41.47,84.51
916,41.38,84.51
917,41.33,84.82
918,41.26,86.07
919,41.2,84.68
920,41.13,86.11
921,41.03,85.47
922,40.99,85.59
923,40.93,85.1
924,40.85,85.1
925,40.79,85.38
926,40.71,86.97
927,40.66,85.11
928,40.58,85.73
929,40.52,85.33
930,40.46,86.08
931,40.38,85.92
932,40.33,86.13
933,40.24,86.13
934,40.19,86.55
935,40.12,86.52
936,40.05,86.93
937,39.98,87.48
938,39.91,87.08
939,39.86,88.2
940,39.76,87.48
941,39.72,87.48
942,39.66,88.77
943,39.58,88.59
944,39.51,88.97
945,39.43,88.59
946,39.38,88.06
947,39.3,89.83
948,39.24,88.45
949,39.16,88.81
950,39.1,88.67
951,39.03,89.07
952,38.96,88.46
953,38.89,89.54
954,38.82,88.98
955,38.75,89.47
956,38.67,90.2
957,38.61,89.19
958,38.54,89.58
959,38.46,90.96
960,38.4,89.81
961,38.32,90.48
962,38.26,91.06
963,38.18,90.44
964,38.12,90.11
965,38.05,90.09
966,37.99,90.31
967,37.91,90.6
968,37.84,89.7
969,37.76,90.23
970,37.69,90.43
971,37.63,90.2
972,37.57,91.81
973,37.48,91.42
974,37.42,91.55
975,37.34,91.55
976,37.27,91.32
977,37.19,91.85
978,37.12,91.42
979,37.04,93.71
980,36.99,92.44
981,36.9,92.39
982,36.84,93.73
983,36.78,92.84
984,36.7,93.38
985,36.62,92.94
986,36.54,93.88
987,36.48,93.2
988,36.4,93.49
989,36.35,94.75
990,36.26,93.89
991,36.18,94.76
992,36.12,95.14
993,36.03,94.38
994,35.95,95.6
995,35.88,94.99
996,35.82,95.7
997,35.74,95.99
998,35.67,96.55
999,35.59,96.68
1000,35.52,96.18
1001,35.44,97.01
1002,35.38,96.75
1003,35.28,97.52
1004,35.23,97.05
1005,35.15,97.71
1006,35.08,96.93
1007,35.01,97.53
1008,34.94,98.45
1009,34.85,98.35
1010,34.78,97.84
1011,34.71,96.82
1012,34.63,97.82
1013,34.56,97.11
1014,34.48,98.41
1015,34.4,98.56
1016,34.32,98.06
1017,34.25,97.58
1018,34.16,98.44
1019,34.1,98.85
1020,34.01,98.42
1021,33.95,98.9
1022,33.87,98.89
1023,33.8,99
1024,33.73,99.43
1025,33.64,98.92
1026,33.57,99.67
1027,33.49,99.54
1028,33.41,100.66
1029,33.34,99.07
1030,33.25,100.41
1031,33.19,100.35
1032,33.09,99.8
1033,33.03,100.3
1034,32.96,100.67
1035,32.87,99.96
1036,32.81,101.7
1037,32.72,101.03
1038,32.64,101.6
1039,32.56,101.35
1040,32.48,101.55
1041,32.4,101.63
1042,32.32,102.15
1043,32.25,101.77
1044,32.16,102.11
1045,32.08,101.66
1046,32.02,101.88
1047,31.94,101.82
1048,31.84,102.35
1049,31.77,102.78
1050,31.71,102.2
1051,31.63,101.83
1052,31.55,103.58
1053,31.46,102.85
1054,31.39,103.91
1055,31.3,102.69
1056,31.24,102.14
1057,31.15,103.8
1058,31.07,103.33
1059,30.98,103.6
1060,30.92,103.61
1061,30.83,103.39
1062,30.76,103.64
1063,30.68,103.57
1064,30.59,104.55
1065,30.5,104.64
1066,30.45,103.21
1067,30.36,104.21
1068,30.28,103.83
1069,30.19,105.04
1070,30.12,103.86
1071,30.04,104.04
1072,29.96,103.96
1073,29.88,104.17
1074,29.8,104.25
1075,29.71,103.88
1076,29.64,104.94
1077,29.55,104.47
1078,29.48,104.35
1079,29.4,104.5
1080,29.32,104.63
1081,29.24,105.03
1082,29.16,104.47
1083,29.08,104.89
1084,28.99,104.6
1085,28.9,104.97
1086,28.83,104.84
1087,28.75,106.87
1088,28.67,105.16
1089,28.57,106.19
1090,28.5,105.88
1091,28.42,106.15
1092,28.33,106.18
1093,28.26,106.52
1094,28.18,106.51
1095,28.11,106.88
1096,28.02,106.46
1097,27.93,107.23
1098,27.86,107.79
1099,27.79,107.84
1100,27.69,106.9
1101,27.62,108.09
1102,27.52,107.71
1103,27.46,107.45
1104,27.35,107.27
1105,27.29,107.9
1106,27.19,106.34
1107,27.11,106.95
1108,27.03,106.71
1109,26.96,106.57
1110,26.87,106.95
1111,26.81,106.65
1112,26.71,106.79
1113,26.64,106.23
1114,26.55,106.07
1115,26.48,106.75
1116,26.38,106.01
1117,26.31,105.24
1118,26.22,105.22
1119,26.15,105.22
1120,26.06,104.54
1121,26,105.33
1122,25.91,105.44
1123,25.8,104.57
1124,25.75,104.76
1125,25.67,104.41
1126,25.6,104.89
1127,25.51,105.27
1128,25.43,104.18
1129,25.35,104.66
1130,25.27,104.56
1131,25.19,104.31
1132,25.11,104.52
1133,25.03,104.09
1134,24.96,103.93
1135,24.86,103.65
1136,24.8,103.28
1137,24.73,103.61
1138,24.64,102.53
1139,24.56,103.64
1140,24.48,103.14
1141,24.4,102.64
1142,24.34,103.88
1143,24.26,102.71
1144,24.18,101.96
1145,24.11,102.4
1146,24.03,101.62
1147,23.96,101.45
1148,23.86,101.38
1149,23.8,100.54
1150,23.72,100.47
1151,23.67,99.36
1152,23.56,99.68
1153,23.5,98.94
1154,23.42,97.88
1155,23.36,98.42
1156,23.26,98.45
1157,23.21,98.16
1158,23.14,96.71
1159,23.07,97.26
1160,23,97.13
1161,22.92,96.86
1162,22.85,95.79
1163,22.78,95.96
1164,22.72,96.4
1165,22.63,95.24
1166,22.56,94.34
1167,22.51,94.1
1168,22.43,94.32
1169,22.36,93.82
1170,22.28,93.54
1171,22.22,92.84
1172,22.15,92.66
1173,22.07,91.41
1174,22.01,92.69
1175,21.95,91.1
1176,21.89,90.44
1177,21.81,89.4
