Time,Mass
[s],[g]
0.0,25.8362
1.0564,25.8362
2.1128,25.8362
3.1692,25.8362
4.0496,25.836
5.106,25.8356
6.1624,25.8345
7.0427,25.8325
8.0991,25.8291
9.1555,25.8234
10.0359,25.8167
11.0923,25.8093
12.1487,25.8015
13.029,25.7947
14.0855,25.7879
15.1419,25.7804
16.0222,25.7731
17.0786,25.7656
18.135,25.7567
19.0154,25.748
20.0718,25.7386
21.1282,25.7275
22.0085,25.7163
23.0649,25.7041
24.1213,25.6897
25.0017,25.6752
26.0581,25.6595
27.1145,25.641
28.1709,25.621
29.0512,25.6013
30.1077,25.5802
31.1641,25.5556
32.0444,25.5316
33.1008,25.5062
34.1572,25.477
35.0376,25.4488
36.094,25.4193
37.1504,25.3856
38.0307,25.3534
39.0871,25.3199
40.1435,25.282
41.0239,25.2461
42.0803,25.209
43.1367,25.1673
44.017,25.128
45.0735,25.0876
46.1299,25.0424
47.0102,25.0001
48.0666,24.9568
49.123,24.9085
50.0034,24.8635
51.0598,24.8175
52.1162,24.7666
53.1726,24.7147
54.0529,24.6665
55.1093,24.6175
56.1657,24.5633
57.0461,24.513
58.1025,24.4621
59.1589,24.4059
60.0392,24.3538
61.0957,24.3011
62.1521,24.2431
63.0324,24.1893
64.0888,24.1351
65.1452,24.0754
66.0256,24.0202
67.082,23.9646
68.1384,23.9035
69.0187,23.847
70.0751,23.7901
71.1315,23.7277
72.0119,23.6701
73.0683,23.6121
74.1247,23.5484
75.005,23.4898
76.0614,23.4308
77.1179,23.3661
78.1743,23.301
79.0546,23.241
80.111,23.1808
81.1674,23.1148
82.0478,23.054
83.1042,22.9929
84.1606,22.926
85.0409,22.8644
86.0973,22.8026
87.1537,22.7349
88.0341,22.6726
89.0905,22.6101
90.1469,22.5416
91.0272,22.4787
92.0837,22.4155
93.1401,22.3464
94.0204,22.2828
95.0768,22.219
96.1332,22.1493
97.0136,22.0851
98.07,22.0208
99.1264,21.9504
100.0067,21.8857
101.0631,21.8209
102.1195,21.7499
103.176,21.6788
104.0563,21.6134
105.1127,21.5479
106.1691,21.4763
107.0494,21.4104
108.1059,21.3445
109.1623,21.2723
110.0426,21.2061
111.099,21.1397
112.1554,21.0671
113.0358,21.0004
114.0922,20.9336
115.1486,20.8605
116.0289,20.7934
117.0853,20.7262
118.1417,20.6528
119.0221,20.5853
120.0785,20.5177
121.1349,20.4439
122.0152,20.3761
123.0716,20.3081
124.1281,20.2339
125.0084,20.1658
126.0648,20.0975
127.1212,20.0229
128.0016,19.9544
129.058,19.8858
130.1144,19.8109
131.1708,19.7358
132.0511,19.6669
133.1075,19.5979
134.1639,19.5226
135.0443,19.4534
136.1007,19.3841
137.1571,19.3084
138.0374,19.239
139.0938,19.1694
140.1503,19.0934
141.0306,19.0237
142.087,18.9538
143.1434,18.8776
144.0238,18.8076
145.0802,18.7375
146.1366,18.661
147.0169,18.5907
148.0733,18.5204
149.1297,18.4436
150.0101,18.3731
151.0665,18.3026
152.1229,18.2255
153.0032,18.1548
154.0596,18.084
155.1161,18.0067
156.1725,17.9294
157.0528,17.8584
158.1092,17.7873
159.1656,17.7097
160.046,17.6385
161.1024,17.5672
162.1588,17.4894
163.0391,17.418
164.0955,17.3466
165.1519,17.2685
166.0323,17.1969
167.0887,17.1253
168.1451,17.047
169.0254,16.9753
170.0818,16.9034
171.1383,16.825
172.0186,16.753
173.075,16.681
174.1314,16.6024
175.0118,16.5303
176.0682,16.4581
177.1246,16.3793
178.0049,16.307
179.0613,16.2346
180.1177,16.1556
181.1742,16.0765
182.0545,16.004
183.1109,15.9314
184.1673,15.8522
185.0476,15.7795
186.104,15.7068
187.1605,15.6274
188.0408,15.5546
189.0972,15.4817
190.1536,15.4021
191.034,15.3291
192.0904,15.2561
193.1468,15.1764
194.0271,15.1032
195.0835,15.03
196.1399,14.9501
197.0203,14.8768
198.0767,14.8035
199.1331,14.7234
200.0134,14.65
201.0698,14.5764
202.1263,14.4962
203.0066,14.4226
204.063,14.349
205.1194,14.2687
206.1758,14.1882
207.0562,14.1145
208.1126,14.0406
209.169,13.96
210.0493,13.8861
211.1057,13.8121
212.1621,13.7314
213.0425,13.6573
214.0989,13.5832
215.1553,13.5023
216.0356,13.4281
217.092,13.3539
218.1485,13.2728
219.0288,13.1985
220.0852,13.1241
221.1416,13.0429
222.022,12.9684
223.0784,12.8938
224.1348,12.8125
225.0151,12.7378
226.0715,12.6632
227.1279,12.5816
228.0083,12.5069
229.0647,12.4321
230.1211,12.3504
231.0014,12.2755
232.0578,12.2005
233.1143,12.1187
234.1707,12.0368
235.051,11.9617
236.1074,11.8866
237.1638,11.8046
238.0442,11.7293
239.1006,11.6541
240.157,11.5719
241.0373,11.4965
242.0937,11.4211
243.1501,11.3388
244.0305,11.2633
245.0869,11.1877
246.1433,11.1053
247.0236,11.0296
248.08,10.9539
249.1365,10.8712
250.0168,10.7953
251.0732,10.7194
252.1296,10.6365
253.01,10.5604
254.0664,10.4841
255.1228,10.4008
256.0031,10.3243
257.0595,10.2477
258.1159,10.1638
259.1723,10.0797
260.0527,10.0023
261.1091,9.9246
262.1655,9.8395
263.0458,9.761
264.1023,9.6822
265.1587,9.5958
266.039,9.5161
267.0954,9.4359
268.1518,9.3479
269.0322,9.2666
270.0886,9.1848
271.145,9.0948
272.0253,9.0117
273.0817,8.9279
274.1381,8.8357
275.0185,8.7503
276.0749,8.664
277.1313,8.5688
278.0116,8.4805
279.0681,8.3911
280.1245,8.2927
281.0048,8.2016
282.0612,8.1095
283.1176,8.0081
284.174,7.9055
285.0544,7.8105
286.1108,7.7146
287.1672,7.609
288.0475,7.5114
289.1039,7.413
290.1603,7.3049
291.0407,7.205
292.0971,7.1045
293.1535,6.9942
294.0338,6.8926
295.0903,6.7904
296.1467,6.6785
297.027,6.5755
298.0834,6.4721
299.1398,6.3589
300.0202,6.2549
301.0766,6.1506
302.133,6.0366
303.0133,5.9319
304.0697,5.827
305.1261,5.7124
306.0065,5.6073
307.0629,5.5021
308.1193,5.3872
309.1757,5.2723
310.056,5.167
311.1125,5.0616
312.1689,4.9467
313.0492,4.8414
314.1056,4.7361
315.162,4.6213
316.0424,4.5162
317.0988,4.4112
318.1552,4.2968
319.0355,4.192
320.0919,4.0874
321.1483,3.9735
322.0287,3.8692
323.0851,3.7652
324.1415,3.6519
325.0218,3.5483
326.0783,3.445
327.1347,3.3325
328.015,3.2297
329.0714,3.1273
330.1278,3.0159
331.0082,2.9141
332.0646,2.8127
333.121,2.7025
334.0013,2.6018
335.0577,2.5017
336.1141,2.3929
337.1705,2.2846
338.0509,2.186
339.1073,2.0878
340.1637,1.9813
341.044,1.8843
342.1005,1.788
343.1569,1.6835
344.0372,1.5886
345.0936,1.4943
346.15,1.3923
347.0304,1.2997
348.0868,1.2078
349.1432,1.1088
350.0235,1.019
351.0799,0.9302
352.1363,0.8347
353.0167,0.7483
354.0731,0.6637
355.1295,0.5727
356.0098,0.4915
357.0663,0.4118
358.1226,0.3278
359.003,0.2539
360.0594,0.1841
361.1158,0.1137
362.1722,0.0538
363.0526,0.0146
364.109,0.001
365.1654,0.0
366.0457,0.0
367.1021,0.0
368.1585,0.0
369.0389,0.0
370.0953,0.0
371.1517,0.0
372.032,0.0
373.0884,0.0
374.1449,0.0
375.0252,0.0
376.0816,0.0
377.138,0.0
378.0184,0.0
379.0748,0.0
380.1312,0.0
381.0115,0.0
382.0679,0.0
383.1243,0.0
384.0047,0.0
385.0611,0.0
386.1175,0.0
387.1739,0.0
388.0542,0.0
389.1106,0.0
390.1671,0.0
391.0474,0.0
392.1038,0.0
393.1602,0.0
394.0406,0.0
395.097,0.0
396.1534,0.0
397.0337,0.0
398.0901,0.0
399.1465,0.0
400.0269,0.0
401.0833,0.0
402.1397,0.0
403.02,0.0
404.0764,0.0
405.1329,0.0
406.0132,0.0
407.0696,0.0
408.126,0.0
409.0064,0.0
410.0628,0.0
411.1192,0.0
412.1756,0.0
413.0559,0.0
414.1123,0.0
415.1687,0.0
416.0491,0.0
417.1055,0.0
418.1619,0.0
419.0422,0.0
420.0986,0.0
421.1551,0.0
422.0354,0.0
423.0918,0.0
424.1482,0.0
425.0286,0.0
426.085,0.0
427.1414,0.0
428.0217,0.0
429.0781,0.0
430.1345,0.0
431.0149,0.0
432.0713,0.0
433.1277,0.0
434.008,0.0
435.0644,0.0
436.1208,0.0
437.0012,0.0
438.0576,0.0
439.114,0.0
440.1704,0.0
441.0508,0.0
442.1072,0.0
443.1636,0.0
444.0439,0.0
445.1003,0.0
446.1567,0.0
447.0371,0.0
448.0935,0.0
449.1499,0.0
450.0302,0.0
451.0866,0.0
452.1431,0.0
453.0234,0.0
454.0798,0.0
455.1362,0.0
456.0166,0.0
457.073,0.0
458.1294,0.0
459.0097,0.0
460.0661,0.0
461.1225,0.0
462.0029,0.0
463.0593,0.0
464.1157,0.0
465.1721,0.0
466.0524,0.0
467.1088,0.0
468.1653,0.0
469.0456,0.0
470.102,0.0
471.1584,0.0
472.0388,0.0
473.0952,0.0
474.1516,0.0
475.0319,0.0
476.0883,0.0
477.1447,0.0
478.0251,0.0
479.0815,0.0
480.1379,0.0
481.0182,0.0
482.0746,0.0
483.131,0.0
484.0114,0.0
485.0678,0.0
486.1242,0.0
487.0046,0.0
488.061,0.0
489.1174,0.0
490.1738,0.0
491.0541,0.0
492.1105,0.0
493.1669,0.0
494.0473,0.0
495.1037,0.0
496.1601,0.0
497.0404,0.0
498.0968,0.0
499.1533,0.0
500.0,0.0
