Time,Mass
[s],[g]
0.0,26.474398000000004
1.056409,26.474397000000003
2.112818,26.474396
3.1692270000000002,26.474392000000005
4.0495678999999996,26.474379000000006
5.1059769,26.474349000000007
6.1623859,26.474282000000002
7.042726700000001,26.474171
8.099135799999999,26.473987000000005
9.155544800000001,26.473675000000004
10.035886,26.473258
11.092295,26.472676
12.148703999999999,26.471822999999997
13.029044,26.470810000000004
14.085453,26.469537000000003
15.141863,26.46784
16.022203,26.465985999999997
17.078612,26.463824000000002
18.135021,26.461128000000002
19.015362,26.45835
20.071771,26.455267000000006
21.12818,26.451571
22.008521,26.447872000000004
23.06493,26.443843
24.121339000000003,26.439049000000008
25.00168,26.434240999999997
26.058089000000002,26.42895
27.114497999999998,26.422556
28.170907,26.415387000000006
29.051247999999998,26.408028
30.107657,26.399757000000005
31.164066,26.389599999999998
32.044407,26.379122999999996
33.100815999999995,26.367354000000002
34.157225,26.352978
35.037566,26.33829
36.093975,26.321999000000005
37.150384,26.302400000000002
38.030724,26.282707000000002
39.087133,26.261250999999998
40.143542,26.235904000000005
41.023883000000005,26.21089
42.080292,26.184114000000008
43.136701,26.153012000000004
44.017042,26.122808
45.073451,26.090956
46.12986,26.054470999999996
47.010201,26.019492000000007
48.06661,25.983038
49.123019,25.941729000000002
50.00336,25.902510999999997
51.059769,25.86200400000001
52.116178000000005,25.816471
53.172587,25.769585999999997
54.052928,25.725492000000003
55.109337,25.680335999999997
56.165746,25.629972000000002
57.046087,25.58284
58.102495999999995,25.53479
59.158905000000004,25.481415000000002
60.039244999999994,25.431652000000007
61.09565500000001,25.381090999999994
62.152064,25.325104000000007
63.03240400000001,25.273054000000002
64.088813,25.220307999999996
65.145222,25.162043
66.025563,25.107996
67.081972,25.053341
68.13838100000001,24.993081
69.018722,24.937282999999997
70.075131,24.88095
71.13154,24.818937000000005
72.011881,24.761598000000003
73.06829,24.703785999999997
74.12469899999999,24.640224000000003
75.00504000000001,24.581523
76.061449,24.522404000000005
77.117858,24.457472
78.174267,24.392094000000004
79.054608,24.331794000000002
80.111017,24.271137000000007
81.167426,24.204592000000005
82.04776700000001,24.143262999999997
83.104176,24.081616
84.160585,24.014032999999998
85.040925,23.951787000000003
86.097334,23.889257999999998
87.153743,23.820748000000002
88.034084,23.75768400000001
89.09049300000001,23.694367
90.146902,23.625028
91.027243,23.561232
92.083652,23.497210000000006
93.140061,23.427129000000004
94.020402,23.362677000000005
95.07681099999999,23.298023
96.13322,23.227276
97.013561,23.162235999999996
98.06997,23.097013
99.126379,23.025668
100.00672,22.960098
101.06313,22.894363000000002
102.11954,22.82247900000001
103.17595,22.750417000000002
104.05629,22.684212000000002
105.1127,22.617857000000004
106.16911,22.545295
107.04945,22.478632000000005
108.10586,22.411839000000004
109.16226,22.338820999999996
110.04261000000001,22.271763
111.09901,22.204570999999998
112.15541999999999,22.131134000000003
113.03576000000001,22.063696
114.09217,21.996137000000004
115.14858000000001,21.922305999999995
116.02892,21.854513
117.08533,21.786609000000006
118.14173999999998,21.712405999999998
119.02208,21.64426900000001
120.07848999999999,21.576024999999998
121.1349,21.501469000000004
122.01523999999999,21.433020000000003
123.07165,21.364470999999995
124.12806,21.289582000000003
125.0084,21.220829000000002
126.06481000000001,21.151979000000008
127.12122,21.076763
128.00156,21.007718
129.05796999999998,20.938576
130.11438,20.863045999999997
131.17078999999998,20.787408
132.05113,20.717980999999995
133.10754,20.648452999999996
134.16394,20.572504000000006
135.04429,20.502792000000007
136.10069,20.432989000000006
137.1571,20.356739000000005
138.03744,20.286747000000002
139.09385,20.216672000000006
140.15026,20.140117000000007
141.0306,20.069855000000004
142.08701000000002,19.999500999999995
143.14342,19.922648000000002
144.02376,19.852108
145.08016999999998,19.781474000000006
146.13658,19.704315
147.01692,19.633497000000006
148.07333,19.562585000000002
149.12974,19.485118000000003
150.01008000000002,19.414020999999998
151.06649,19.342823000000003
152.1229,19.265048
153.00323999999998,19.193658000000003
154.05965,19.122171
155.11606,19.044078
156.17247,18.965872
157.05281000000002,18.894090999999996
158.10922,18.822200000000006
159.16562,18.743668
160.04596999999998,18.67158
161.10237,18.599385
162.15878,18.52051400000001
163.03912,18.448110999999997
164.09553,18.375599000000005
165.15194,18.296381
166.03228000000001,18.223660000000002
167.08868999999999,18.150828
168.1451,18.071247999999997
169.02544,17.998197
170.08185,17.925027000000004
171.13826,17.845078
172.0186,17.771676
173.07501000000002,17.698157000000005
174.13142,17.617824000000006
175.01176,17.544070999999995
176.06817,17.47019400000001
177.12458,17.389470000000003
178.00492,17.315337
179.06133,17.241063
180.11774,17.159900999999998
181.17415,17.078589000000004
182.05449,17.00393
183.1109,16.929137999999995
184.1673,16.84741
185.04765,16.772350999999997
186.10405,16.697166
187.16046,16.614984000000007
188.0408,16.539513
189.09721000000002,16.463902
190.15362,16.381255000000003
191.03396,16.305345
192.09037,16.229287000000003
193.14678,16.146147000000006
194.02712,16.069789000000007
195.08353,15.993279999999999
196.13994,15.909644000000007
197.02028,15.832820000000005
198.07668999999999,15.755827
199.1331,15.671667
200.01344,15.594352000000006
201.06985,15.516867000000003
202.12626,15.432149999999998
203.0066,15.354320999999997
204.06301000000002,15.276319000000003
205.11942,15.191043
206.17583,15.105550999999995
207.05617,15.027007000000001
208.11258,14.948284999999998
209.16898,14.8622
210.04932999999997,14.783099000000007
211.10573,14.703804000000007
212.16214,14.617098000000002
213.04247999999998,14.537427999999998
214.09888999999998,14.457562
215.1553,14.370212
216.03564,14.289952000000001
217.09205,14.209487000000006
218.14846,14.121478
219.0288,14.040594000000004
220.08521000000002,13.959494000000003
221.14162000000002,13.870803
222.02196,13.789281
223.07837,13.707549000000006
224.13477999999998,13.618154000000008
225.01512000000002,13.535986
226.07152999999997,13.453584000000005
227.12794,13.363462000000007
228.00827999999998,13.280615000000003
229.06468999999998,13.197542000000006
230.1211,13.106657
231.00144,13.023090000000002
232.05785,12.939258000000002
233.11426,12.847546000000001
234.17066,12.755557000000001
235.05101000000002,12.671006000000006
236.10741000000002,12.586231000000003
237.16382000000002,12.493473999999997
238.04416,12.408209000000003
239.10057,12.322680000000002
240.15697999999998,12.229106000000003
241.03732000000002,12.143074000000004
242.09373,12.056779000000004
243.15014,11.962368000000001
244.03047999999998,11.875555000000002
245.08688999999998,11.788459000000001
246.1433,11.693156000000004
247.02364,11.605516000000003
248.08005,11.517597999999998
249.13646,11.421373999999998
250.0168,11.332882000000003
251.07321000000002,11.244091000000004
252.12962000000002,11.146929
253.00996,11.057562000000006
254.06637,10.967887000000003
255.12277999999998,10.869713000000003
256.00312,10.779416
257.05953,10.688802999999997
258.11593999999997,10.589590000000003
259.17233999999996,10.489967000000004
260.05269,10.398299999999999
261.10909,10.306292000000001
262.1655,10.205546000000004
263.04584,10.112849
264.10225,10.019799000000003
265.15866,9.917896000000002
266.039,9.824114000000002
267.09541,9.729938
268.15182000000004,9.626746000000006
269.03216000000003,9.531743000000002
270.08857,9.436322999999996
271.14498,9.331766000000005
272.02532,9.235484000000001
273.08173,9.138752000000007
274.13813999999996,9.032737999999998
275.01847999999995,8.935092000000006
276.07489,8.836960000000005
277.1313,8.729364000000004
278.01164,8.630236
279.06805,8.530586
280.12446,8.421256000000001
281.0048,8.320425
282.06121,8.218997999999997
283.11762000000004,8.107719999999999
284.17402000000004,7.995758999999998
285.05436000000003,7.892533
286.11077,7.788642999999998
287.16718,7.674555
288.04752,7.5693230000000025
289.10393,7.463447000000005
290.16033999999996,7.347194000000002
291.04068,7.239894000000004
292.09709,7.131901000000003
293.1535,7.013325000000001
294.03384,6.9038699999999995
295.09025,6.793692999999997
296.14666,6.672740000000004
297.027,6.561097000000002
298.08341,6.448732000000006
299.13982000000004,6.325367000000005
300.02016000000003,6.211517999999999
301.07657,6.096976000000004
302.13298,5.971215000000002
303.01332,5.855226000000005
304.06973,5.738507999999996
305.12613999999996,5.610417999999999
306.00647999999995,5.492307000000002
307.06289,5.373486000000003
308.1193,5.243092999999997
309.1757,5.111968000000002
310.05604,4.991126000000006
311.11245,4.869646000000005
312.16886,4.736435000000004
313.0492,4.613786000000002
314.10561,4.490571000000005
315.16202000000004,4.355545000000002
316.04236000000003,4.231262000000006
317.09877,4.106451000000004
318.15518,3.9697860000000027
319.03552,3.8440650000000005
320.09193,3.7178900000000015
321.14834,3.5797389999999982
322.02868,3.4527120000000036
323.08509,3.3253570000000012
324.1415,3.186100000000004
325.02184,3.0582410000000033
326.07825,2.9301120000000056
327.13466,2.790062000000003
328.015,2.6615620000000026
329.07141,2.5332500000000007
330.12782000000004,2.3933370000000025
331.00816000000003,2.2648889999999993
332.06457,2.1365050000000005
333.12098,1.996632000000005
334.00132,1.868878000000001
335.05772,1.741999000000001
336.11413,1.604035
337.17054,1.4668200000000007
338.05088,1.3418110000000019
339.10729,1.2173900000000022
340.1637,1.0827520000000028
341.04404,0.9608900000000025
342.10045,0.8399370000000024
343.15686,0.7100520000000027
344.0372,0.5934900000000021
345.09361,0.47949200000000497
346.15002000000004,0.35976799999999987
347.03036000000003,0.25572200000000334
348.08677,0.15909100000000356
349.14318,0.07047300000000145
350.02352,0.018824000000000618
351.07993,0.0011440000000015327
352.13634,5.000000000837668e-06
353.01668,0.0
354.07309,0.0
355.1295,0.0
356.00984,0.0
357.06625,0.0
358.12265,0.0
359.003,0.0
360.0594,0.0
361.11581,0.0
362.17222000000004,0.0
363.05256,0.0
364.10897,0.0
365.16537999999997,0.0
366.04572,0.0
367.10213,0.0
368.15854,0.0
369.03888,0.0
370.09529,0.0
371.1517,0.0
372.03204,0.0
373.08845,0.0
374.14486,0.0
375.0252,0.0
376.08161,0.0
377.13802000000004,0.0
378.01836000000003,0.0
379.07477,0.0
380.13118,0.0
381.01152,0.0
382.06793,0.0
383.12433,0.0
384.00468,0.0
385.06108,0.0
386.11749,0.0
387.1739,0.0
388.05424,0.0
389.11065,0.0
390.16706,0.0
391.0474,0.0
392.10381,0.0
393.16022000000004,0.0
394.04056,0.0
395.09697,0.0
396.15337999999997,0.0
397.03372,0.0
398.09013,0.0
399.14654,0.0
400.02688,0.0
401.08329,0.0
402.1397,0.0
403.02004,0.0
404.07645,0.0
405.13286,0.0
406.0132,0.0
407.06961,0.0
408.12601,0.0
409.00636000000003,0.0
410.06276,0.0
411.11917,0.0
412.17557999999997,0.0
413.05592,0.0
414.11233,0.0
415.16874,0.0
416.04908,0.0
417.10549,0.0
418.1619,0.0
419.04224,0.0
420.09865,0.0
421.15505999999993,0.0
422.0354,0.0
423.09180999999995,0.0
424.14822000000004,0.0
425.02855999999997,0.0
426.08497,0.0
427.14137999999997,0.0
428.02172,0.0
429.07813,0.0
430.13454,0.0
431.01488,0.0
432.07129000000003,0.0
433.12769000000003,0.0
434.00804000000005,0.0
435.06444000000005,0.0
436.12085,0.0
437.00119000000007,0.0
438.0576,0.0
439.11400999999995,0.0
440.17042000000004,0.0
441.05075999999997,0.0
442.10717,0.0
443.16357999999997,0.0
444.04392,0.0
445.10033,0.0
446.15674,0.0
447.03708,0.0
448.09349000000003,0.0
449.1499,0.0
450.03024000000005,0.0
451.08665,0.0
452.14305999999993,0.0
453.0234,0.0
454.07980999999995,0.0
455.13622000000004,0.0
456.01655999999997,0.0
457.07297,0.0
458.12937,0.0
459.00972,0.0
460.06612,0.0
461.12253,0.0
462.00287000000003,0.0
463.05928,0.0
464.11569000000003,0.0
465.1721,0.0
466.05244000000005,0.0
467.10885,0.0
468.16526,0.0
469.0456,0.0
470.10200999999995,0.0
471.15842000000004,0.0
472.03875999999997,0.0
473.09517,0.0
474.15157999999997,0.0
475.03192,0.0
476.08833,0.0
477.14474,0.0
478.02508,0.0
479.08149000000003,0.0
480.1379,0.0
481.01824000000005,0.0
482.07465,0.0
483.13105,0.0
484.0114,0.0
485.0678,0.0
486.12420999999995,0.0
487.00455,0.0
488.06095999999997,0.0
489.11737,0.0
490.17377999999997,0.0
491.05412,0.0
492.11053,0.0
493.16694,0.0
494.04728,0.0
495.10369000000003,0.0
496.1601,0.0
497.04044000000005,0.0
498.09685,0.0
499.15326,0.0
500.0,0.0
