Time,T_back_1
[s],[K]
0.0,291.7
1.056409,291.69996399999997
2.112818,291.69990299999995
3.1692270000000002,291.699842
4.0495678999999996,291.69978599999996
5.1059769,291.699731
6.1623859,291.69969199999997
7.042726700000001,291.69976299999996
8.099135799999999,291.70027899999997
9.155544800000001,291.702235
10.035886,291.70676799999995
11.092295,291.71632
12.148703999999999,291.735443
13.029044,291.764193
14.085453,291.807726
15.141863,291.87514699999997
16.022203,291.95829899999995
17.078612,292.065618
18.135021,292.211598
19.015362,292.373657
20.071771,292.565296
21.12818,292.80756199999996
22.008521,293.060502
23.06493,293.344388
24.121339000000003,293.687589
25.00168,294.032443
26.058089000000002,294.406867
27.114497999999998,294.84666699999997
28.170907,295.318536
29.051247999999998,295.77780299999995
30.107657,296.26269099999996
31.164066,296.818377
32.044407,297.35115299999995
33.100815999999995,297.906187
34.157225,298.534728
35.037566,299.13096199999995
36.093975,299.74618599999997
37.150384,300.436912
38.030724,301.087043
39.087133,301.753152
40.143542,302.49621399999995
41.023883000000005,303.191506
42.080292,303.900069
43.136701,304.68659299999996
44.017042,305.419207
45.073451,306.16266199999995
46.12986,306.98470299999997
47.010201,307.747624
48.06661,308.51921899999996
49.123019,309.369667
50.00336,310.156589
51.059769,310.95021599999995
52.116178000000005,311.82262
53.172587,312.70136599999995
54.052928,313.51179099999996
55.109337,314.326532
56.165746,315.219431
57.046087,316.041113
58.102495999999995,316.86542399999996
59.158905000000004,317.76699099999996
60.039244999999994,318.595065
61.09565500000001,319.424245
62.152064,320.329294
63.03240400000001,321.158775
64.088813,321.987595
65.145222,322.890362
66.025563,323.715506
67.081972,324.53903299999996
68.13838100000001,325.436694
69.018722,326.25982
70.075131,327.08243899999997
71.13154,327.979649
72.011881,328.801569
73.06829,329.62312199999997
74.12469899999999,330.51855
75.00504000000001,331.33858999999995
76.061449,332.15786899999995
77.117858,333.050662
78.174267,333.94203699999997
79.054608,334.758193
80.111017,335.572656
81.167426,336.459969
82.04776700000001,337.27173999999997
83.104176,338.081992
84.160585,338.963934
85.040925,339.770939
86.097334,340.57575099999997
87.153743,341.45167599999996
88.034084,342.252501
89.09049300000001,343.05141499999996
90.146902,343.92022399999996
91.027243,344.714561
92.083652,345.50654399999996
93.140061,346.367734
94.020402,347.155013
95.07681099999999,347.939342
96.13322,348.792376
97.013561,349.571462
98.06997,350.347562
99.126379,351.191367
100.00672,351.961706
101.06313,352.729836
102.11954,353.564083
103.17595,354.394795
104.05629,355.153063
105.1127,355.90816199999995
106.16911,356.728341
107.04945,357.47655799999995
108.10586,358.221349
109.16226,359.030663
110.04261000000001,359.768412
111.09901,360.50262599999996
112.15541999999999,361.300023
113.03576000000001,362.026839
114.09217,362.749845
115.14858000000001,363.53486999999996
116.02892,364.249822
117.08533,364.96113299999996
118.14173999999998,365.732381
119.02208,366.435102
120.07848999999999,367.133424
121.1349,367.890529
122.01523999999999,368.580018
123.07165,369.26411399999995
124.12806,370.00553399999995
125.0084,370.67995499999995
126.06481000000001,371.34916899999996
127.12122,372.073399
128.00156,372.73162299999996
129.05796999999998,373.38352999999995
130.11438,374.08786999999995
131.17078999999998,374.78648
132.05113,375.42143
133.10754,376.05271
134.16394,376.73758999999995
135.04429,377.36123999999995
136.10069,377.9822
137.1571,378.65563999999995
138.03744,379.27085999999997
139.09385,379.88324
140.15026,380.54931999999997
141.0306,381.15720999999996
142.08701000000002,381.76381999999995
143.14342,382.42318
144.02376,383.02563
145.08016999999998,383.62681999999995
146.13658,384.28114999999997
147.01692,384.87998999999996
148.07333,385.47787999999997
149.12974,386.12816
150.01008000000002,386.72418999999996
151.06649,387.31899999999996
152.1229,387.96774999999997
153.00323999999998,388.56146
154.05965,389.15522
155.11606,389.80262999999997
156.17247,390.45002
157.05281000000002,391.04233
158.10922,391.63606999999996
159.16562,392.28279
160.04596999999998,392.87666
161.10237,393.47051
162.15878,394.11845
163.03912,394.71336999999994
164.09553,395.30895999999996
165.15194,395.95950999999997
166.03228000000001,396.55683
167.08868999999999,397.15477999999996
168.1451,397.80836999999997
169.02544,398.40896999999995
170.08185,399.01
171.13826,399.66761999999994
172.0186,400.27191
173.07501000000002,400.87766999999997
174.13142,401.54067999999995
175.01176,402.14996999999994
176.06817,402.76116
177.12458,403.43044999999995
178.00492,404.04548
179.06133,404.66328999999996
180.11774,405.33915
181.17415,406.01813
182.05449,406.64351
183.1109,407.27197
184.1673,407.9598
185.04765,408.59322
186.10405,409.23041
187.16046,409.92875
188.0408,410.57214
189.09721000000002,411.21961
190.15362,411.92999999999995
191.03396,412.58434
192.09037,413.24339
193.14678,413.96659
194.02712,414.6339899999999
195.08353,415.30629
196.13994,416.04543
197.02028,416.72783999999996
198.07668999999999,417.41467
199.1331,418.17071
200.01344,418.87012
201.06985,419.57563
202.12626,420.3522899999999
203.0066,421.06962999999996
204.06301000000002,421.79531
205.11942,422.59547
206.17583,423.40459
207.05617,424.15396
208.11258,424.91006
209.16898,425.74132999999995
210.04932999999997,426.50892999999996
211.10573,427.28263
212.16214,428.13306
213.04247999999998,428.91886
214.09888999999998,429.71056
215.1553,430.58091
216.03564,431.38552
217.09205,432.19647
218.14846,433.08865
219.0288,433.91326
220.08521000000002,434.74496999999997
221.14162000000002,435.66011
222.02196,436.50612
223.07837,437.36031
224.13477999999998,438.29994999999997
225.01512000000002,439.16925
226.07152999999997,440.04733
227.12794,441.01421
228.00827999999998,441.90883999999994
229.06468999999998,442.81244
230.1211,443.80827999999997
231.00144,444.73061999999993
232.05785,445.66224
233.11426,446.6901
234.17066,447.7295
235.05101000000002,448.69311
236.10741000000002,449.66755
237.16382000000002,450.74280999999996
238.04416,451.74028999999996
239.10057,452.74981
240.15697999999998,453.86497999999995
241.03732000000002,454.90043
242.09373,455.94904999999994
243.15014,457.10792
244.03047999999998,458.18511
245.08688999999998,459.27774999999997
246.1433,460.48628999999994
247.02364,461.61083999999994
248.08005,462.75269
249.13646,464.01847999999995
250.0168,465.19757
251.07321000000002,466.39675
252.12962000000002,467.72787999999997
253.00996,468.97043999999994
254.06637,470.23641
255.12277999999998,471.64646
256.00312,472.96610999999996
257.05953,474.31628
258.11593999999997,475.82383
259.17233999999996,477.36703
260.05269,478.81214
261.10909,480.28883999999994
262.1655,481.93471999999997
263.04584,483.47542
264.10225,485.04971
265.15866,486.8039
266.039,488.44683
267.09541,490.12637
268.15182000000004,491.99852999999996
269.03216000000003,493.75279
270.08857,495.54728
271.14498,497.54907999999995
272.02532,499.42617999999993
273.08173,501.34623
274.13813999999996,503.48979999999995
275.01847999999995,505.50081
276.07489,507.55862
277.1313,509.85643999999996
278.01164,512.0144399999999
279.06805,514.2237
280.12446,516.6928499999999
281.0048,519.01199
282.06121,521.39067
283.11762000000004,524.05584
284.17402000000004,526.79017
285.05436000000003,529.37021
286.11077,532.0152
287.16718,534.97942
288.04752,537.775
289.10393,540.64949
290.16033999999996,543.8885799999999
291.04068,546.9530199999999
292.09709,550.1351199999999
293.1535,553.74902
294.03384,557.20236
295.09025,560.86708
296.14666,565.0998099999999
297.027,569.3138899999999
298.08341,573.98647
299.13982000000004,578.88032
300.02016000000003,582.75366
301.07657,586.1984399999999
302.13298,589.57458
303.01332,592.4175299999999
304.06973,595.07249
305.12613999999996,597.7871399999999
306.00647999999995,600.04859
307.06289,602.18003
308.1193,604.35391
309.1757,606.40563
310.05604,608.1930299999999
311.11245,609.87245
312.16886,611.6166599999999
313.0492,613.14272
314.10561,614.5908099999999
315.16202000000004,616.10709
316.04236000000003,617.43534
317.09877,618.71174
318.15518,620.0466899999999
319.03552,621.2314899999999
320.09193,622.37131
321.14834,623.57636
322.02868,624.6458700000001
323.08509,625.68875
324.1415,626.79693
325.02184,627.78792
326.07825,628.76376
327.13466,629.80583
328.015,630.74197
329.07141,631.66418
330.12782000000004,632.66426
331.00816000000003,633.56897
332.06457,634.45931
333.12098,635.4275399999999
334.00132,636.31365
335.05772,637.19045
336.11413,638.1387199999999
337.17054,639.0942
338.05088,639.96439
339.10729,640.83282
340.1637,641.78147
341.04404,642.65978
342.10045,643.53246
343.15686,644.48534
344.0372,645.36887
345.09361,646.25217
346.15002000000004,647.2193299999999
347.03036000000003,648.11914
348.08677,649.01995
349.14318,650.0084899999999
350.02352,650.92103
351.07993,651.84715
352.13634,652.85764
353.01668,653.79741
354.07309,654.75227
355.1295,655.79751
356.00984,656.7764299999999
357.06625,657.75337
358.12265,658.85022
359.003,659.86977
360.0594,660.8906999999999
361.11581,662.0326299999999
362.17222000000004,663.20447
363.05256,664.2874099999999
364.10897,665.3982
365.16537999999997,666.64382
366.04572,667.80709
367.10213,668.97975
368.15854,670.3380999999999
369.03888,671.57778
370.09529,672.8639599999999
371.1517,674.35862
372.03204,675.71018
373.08845,677.16698
374.14486,678.82764
375.0252,680.3338899999999
376.08161,682.05251
377.13802000000004,683.94828
378.01836000000003,685.70222
379.07477,687.7467999999999
380.13118,689.93469
381.01152,692.3129299999999
382.06793,694.73597
383.12433,697.6649199999999
384.00468,700.8461199999999
385.06108,704.1791499999999
386.11749,708.96705
387.1739,714.0715700000001
388.05424,720.76274
389.11065,728.80688
390.16706,742.2774400000001
391.0474,763.19745
392.10381,792.90737
393.16022000000004,817.72848
394.04056,831.90374
395.09697,841.51388
396.15337999999997,849.11835
397.03372,854.39912
398.09013,858.54925
399.14654,862.26198
400.02688,865.11047
401.08329,867.56195
402.1397,869.9092400000001
403.02004,871.82974
404.07645,873.5632499999999
405.13286,875.28873
406.0132,876.74434
407.06961,878.0903599999999
408.12601,879.46057
409.00636000000003,880.6393400000001
410.06276,881.7491799999999
411.11917,882.89283
412.17557999999997,883.97795
413.05592,884.92454
414.11233,885.82227
415.16874,886.7616099999999
416.04908,887.58805
417.10549,888.3777299999999
418.1619,889.20885
419.04224,889.94159
420.09865,890.6439
421.15505999999993,891.39232
422.0354,892.0396900000001
423.09180999999995,892.68229
424.14822000000004,893.34212
425.02855999999997,893.9409099999999
426.08497,894.5061599999999
427.14137999999997,895.1105
428.02172,895.64829
429.07813,896.1592400000001
430.13454,896.71273
431.01488,897.19385
432.07129000000003,897.6608299999999
433.12769000000003,898.1655599999999
434.00804000000005,898.6014799999999
435.06444000000005,899.02932
436.12085,899.49142
437.00119000000007,899.89541
438.0576,900.2771299999999
439.11400999999995,900.6986099999999
440.17042000000004,901.1077799999999
441.05075999999997,901.4681400000001
442.10717,901.80635
443.16357999999997,902.17769
444.04392,902.51999
445.10033,902.84242
446.15674,903.18439
447.03708,903.4875900000001
448.09349000000003,903.77639
449.1499,904.09183
450.03024000000005,904.3744599999999
451.08665,904.66091
452.14305999999993,904.95408
453.0234,905.21569
454.07980999999995,905.4713099999999
455.13622000000004,905.7439099999999
456.01655999999997,905.98065
457.07297,906.21295
458.12937,906.46578
459.00972,906.69267
460.06612,906.9127599999999
461.12253,907.1480799999999
462.00287000000003,907.35956
463.05928,907.56497
464.11569000000003,907.78391
465.1721,907.99848
466.05244000000005,908.1899999999999
467.10885,908.3773299999999
468.16526,908.57745
469.0456,908.75685
470.10200999999995,908.9322999999999
471.15842000000004,909.11937
472.03875999999997,909.28753
473.09517,909.45156
474.15157999999997,909.62784
475.03192,909.7856599999999
476.08833,909.93912
477.14474,910.10453
478.02508,910.2529999999999
479.08149000000003,910.39827
480.1379,910.5529099999999
481.01824000000005,910.6929
482.07465,910.82998
483.13105,910.9767499999999
484.0114,911.10803
485.0678,911.2363799999999
486.12420999999995,911.3748499999999
487.00455,911.50007
488.06095999999997,911.62231
489.11737,911.7529999999999
490.17377999999997,911.88125
491.05412,911.99629
492.11053,912.10962
493.16694,912.23112
494.04728,912.34087
495.10369000000003,912.4490499999999
496.1601,912.56475
497.04044000000005,912.66913
498.09685,912.77075
499.15326,912.8795799999999
500.0,912.97604
