Time,MLR
s,[g/m2/s]
0,0.00410223
1.1,0.005062653
2,0.005193342
3,0.004632786
4,0.003513974
5.1,0.0019644
6.1,0.000106056
7.1,-0.001944562
8.1,-0.004076458
9.1,-0.006184135
10.1,-0.008167593
11.1,-0.009932331
12.1,-0.011389348
13.1,-0.012455139
14.1,-0.013051701
15.1,-0.013106526
16.1,-0.012552607
17.1,-0.011328434
18.1,-0.009377997
19,-0.006650785
20,-0.003101782
21,0.001308525
22,0.006614152
23,0.012843619
24,0.020019944
25,0.028160647
26,0.04149966
27,0.053046657
28,0.063711093
29,0.056156138
30,0.077723283
31,0.097790075
32,0.116959365
33,0.135710285
34,0.154409009
35,0.173319507
36,0.192614308
37,0.230475548
38,0.24019188
39,0.252822255
40,0.286118487
41,0.292981937
42,0.304127299
43,0.337005162
44,0.344258692
45,0.356387422
46,0.39066981
47,0.399619928
48,0.413651243
49,0.449116727
50,0.460368898
51,0.494695042
52,0.523334497
53,0.530807391
54,0.564092467
55,0.575701301
56,0.596172128
57,0.642992402
58,0.669055483
59,0.705324417
60,0.769754503
61,0.784390199
62,0.795847613
63,0.819402756
64,0.805527759
65,0.831993976
66,0.852051225
67,0.850361056
68,0.876482047
69,0.884147999
70,0.905291497
71,0.927606697
72,0.920824719
73,0.914543118
74,0.925227983
75,0.93601964
76.1,0.930207196
77.1,0.942793363
78.1,0.926026534
79.1,0.910144107
80.1,0.943644067
81.1,0.932552422
82.1,0.943819553
83.1,0.948404314
84.1,0.930463276
85.1,0.938915564
86.1,0.926710289
87.1,0.924839356
88.1,0.919889491
89.1,0.911666656
90.1,0.931286342
91.1,0.918725598
92.1,0.905010179
93.1,0.921126349
94.1,0.888842391
95.1,0.903899906
96.1,0.919358736
97.1,0.888249988
98.1,0.906229068
99.1,0.908190084
100.1,0.913452768
101.1,0.938287718
102.1,0.936918377
103.1,0.926543305
104.1,0.936275176
105.1,0.919407915
106.1,0.90617708
107.1,0.926823613
108.1,0.902415341
109.1,0.928038279
110.1,0.956141549
111.1,0.95728071
112.1,0.979856922
113.1,1.007474684
114.1,1.028596963
115.1,1.044730285
116.1,1.057166018
117.1,1.035631347
118.1,1.040748006
119.1,1.023765592
120.1,1.031934156
121.1,1.047771632
122.1,1.040628671
123.1,1.075877891
124.1,1.089357755
125.1,1.099680722
126.1,1.125330156
127.1,1.133117008
128.1,1.141309479
129.1,1.168089706
130.1,1.180010446
131.1,1.19512474
132.1,1.231442595
133.1,1.224027893
134.1,1.237306541
135.1,1.270870131
136.1,1.277576992
137.1,1.306215975
138.1,1.340784647
139.1,1.352064884
140.1,1.388732576
141.1,1.403366343
142.1,1.413201611
143.1,1.448587299
144.1,1.461908382
145.1,1.519699747
146.1,1.545741054
147.1,1.541549988
148.1,1.56831348
149.1,1.577991561
150.1,1.618700702
151.1,1.660722527
152.1,1.692434334
153.1,1.715235469
154.1,1.730299359
155.1,1.738595028
156.1,1.740908611
157.1,1.769224652
158.1,1.777569131
159.1,1.81604378
160.1,1.838755265
161.1,1.864580016
162.1,1.894271895
163.1,1.928574007
164.1,1.968240212
165.1,1.982696869
166.1,2.019242836
167.1,2.029058181
168.1,2.059318047
169.1,2.092470838
170.1,2.129173593
171.1,2.170223207
172.1,2.23466824
173.1,2.295006877
174.1,2.323678134
175.1,2.370912842
176.1,2.372662822
177.1,2.394279573
178.1,2.436328692
179.1,2.45270168
180.1,2.461930711
181.1,2.49565607
182.1,2.507559478
183.1,2.516038631
184.1,2.552674647
185.1,2.571165381
186.1,2.589999975
187.1,2.609566517
188.1,2.648354147
189.1,2.660060722
190.1,2.676267358
191.1,2.715371753
192.1,2.731055627
193.1,2.754959266
194.1,2.805614842
195.1,2.836913857
196.1,2.867512204
197.1,2.88466834
198.1,2.919979519
199.1,2.95831511
200.1,3.002672433
201.1,3.056118732
202.1,3.090463677
203.1,3.124110343
204.1,3.157253172
205.1,3.189989785
206.1,3.222342494
207.1,3.254279822
208.1,3.285738018
209.1,3.316642571
210.1,3.34692973
211.1,3.376568018
212.1,3.405579748
213.1,3.452152835
214.1,3.469748458
215.1,3.5078659
216.1,3.519971719
217.1,3.537534072
218.1,3.578956035
219.1,3.598043045
220.1,3.644767741
221.1,3.691289428
222.1,3.741164845
223.1,3.766660877
224.1,3.786605545
225.1,3.80158596
226.1,3.793969843
227.1,3.842200669
228.1,3.86898767
229.1,3.893158866
230.1,3.915408949
231.1,3.936411095
232.1,3.956838482
233.1,3.977385801
234.1,4.016881073
235.1,4.029393308
236.1,4.04690705
237.1,4.070165403
238.1,4.100051326
239.1,4.124339665
240.1,4.162073602
241.1,4.180672315
242.1,4.180981112
243.1,4.210562422
244.1,4.252424071
245.1,4.294685163
246.1,4.356862235
247.1,4.393707435
248.1,4.424613582
249.1,4.450721828
250.1,4.473033471
251.1,4.474341175
252.1,4.484074042
253.1,4.500489664
254.1,4.522044656
255.1,4.56549571
256.1,4.601086798
257.1,4.630389395
258.1,4.654964217
259.1,4.676382741
260.1,4.696248716
261.1,4.716219681
262.1,4.738028484
263.1,4.763504793
264.1,4.763236837
265.1,4.785771411
266.1,4.783622586
267.1,4.805385568
268.1,4.835014891
269.1,4.843400011
270.1,4.879475013
271.1,4.914317618
272.1,4.937079705
273.1,4.949913686
274.1,4.954724536
275.1,4.938811847
276.1,4.926417756
277.1,4.948243799
278.1,4.957212384
279.1,4.967421952
280.1,4.984543234
281.1,5.007957488
282.1,5.037200031
283.1,5.071971003
284.1,5.130236412
285.1,5.152055564
286.1,5.186599773
287.1,5.218161075
288.1,5.230997298
289.1,5.256086848
290.1,5.26196097
291.1,5.281983294
292.1,5.3160625
293.1,5.348753368
294.1,5.382742075
295.1,5.402687121
296.1,5.408704622
297.1,5.434469366
298.1,5.448927474
299.1,5.452216164
300.1,5.444314734
301.1,5.406965018
302,5.417955783
303,5.430661745
304,5.448067135
305,5.47333714
306,5.460389346
307,5.474647817
308,5.485577266
309,5.493962606
310,5.500559919
311,5.488016927
312,5.503797598
313,5.517539881
314,5.530244949
315,5.542928184
316,5.556629932
317,5.57242626
318,5.591439716
319,5.614850087
320,5.643905156
321,5.67993146
322,5.692985272
323,5.699682064
324,5.698372956
325,5.687235006
326,5.689198216
327,5.690089634
328,5.690168322
329,5.689754443
330,5.695670586
331,5.705287505
332,5.719832019
333,5.74068694
334,5.769401827
335,5.794434266
336,5.786065482
337,5.77422981
338,5.757426499
339,5.76543927
340,5.781517607
341,5.80721107
342,5.831020276
343,5.823312516
344,5.814151221
345,5.820298065
346,5.825018667
347,5.84291691
348,5.862321284
349,5.853469981
350,5.846340368
351,5.857651086
352,5.870667755
353,5.868677511
354,5.88655384
355,5.876288648
356,5.867735582
357,5.90888162
358,5.905114502
359,5.904528785
360,5.923923795
361,5.91533985
362,5.940071063
363,5.96839866
364,5.97068993
365,5.977137401
366,6.004760942
367,6.005853683
368,6.028725343
369,6.043700181
370,6.034215944
371,6.048388708
372,6.038280304
373,6.052001427
374,6.059709586
375,6.044708053
376,6.055010699
377,6.042609432
378,6.055577291
379,6.064066406
380,6.06949724
381,6.073209571
382,6.058382956
383,6.072961339
384,6.068920487
385,6.094371097
386,6.08819696
387,6.098422706
388,6.108211754
389,6.118790923
390,6.131370894
391,6.14715697
392,6.167359831
393,6.161846519
394,6.178329678
395,6.199725291
396,6.195717511
397,6.213857612
398,6.236921722
399,6.234475655
400,6.253973863
401,6.278117167
402,6.276417591
403,6.296297312
404,6.320446394
405,6.318387618
406,6.337575436
407,6.360753701
408,6.357520502
409,6.375427113
410,6.415426022
411,6.400521909
412,6.427613921
413,6.432761061
414,6.416759824
415,6.427064662
416,6.446505493
417,6.462942831
418,6.477452879
419,6.491068813
420,6.473431751
421,6.485249493
422,6.496120126
423,6.506990759
424,6.518808501
425,6.501171439
426,6.514787373
427,6.529297421
428,6.545734759
429,6.56517559
430,6.575480428
431,6.559479191
432,6.564626331
433,6.591718343
434,6.57681423
435,6.616813139
436,6.63471975
437,6.631486551
438,6.654664817
439,6.673852634
440,6.671793858
441,6.69594294
442,6.715822661
443,6.714123085
444,6.738266389
445,6.757764597
446,6.75531853
447,6.778382641
448,6.796522742
449,6.792514962
450,6.813910575
451,6.830393734
452,6.842970716
453,6.852620906
454,6.860307548
455,6.86698851
456,6.873627037
457,6.881202512
458,6.890721214
459,6.903227074
460,6.919812435
461,6.910269029
462,6.922277228
463,6.907403995
464,6.913205983
465,6.922496972
466,6.936272484
467,6.955630239
468,6.950421141
469,6.96843852
470,6.961416089
471,6.977131042
472,6.998671491
473,6.996001297
474,7.017059027
475,7.013755901
476,7.034078894
477,7.079448472
478,7.073369564
479,7.095183546
480,7.096887704
481,7.095238333
482,7.138286956
483,7.131378281
484,7.122456254
485,7.14133149
486,7.139952863
487,7.153150826
488,7.164169482
489,7.156231419
490,7.146012247
491,7.1634463
492,7.178728739
493,7.180145019
494,7.182255992
495,7.168284245
496,7.15494842
497,7.172268915
498,7.190569989
499,7.198309226
500,7.210262639
501,7.209911009
502,7.214274204
503,7.222357102
504,7.251330183
505,7.271705971
506,7.267078207
507,7.267596387
508,7.272147051
509,7.279713562
510,7.307466398
511,7.325939601
512,7.336860239
513,7.323709094
514,7.316554977
515,7.314236015
516,7.315719433
517,7.338191849
518,7.352235715
519,7.359658785
520,7.362145094
521,7.343175427
522,7.332861623
523,7.330127878
524,7.334070512
525,7.362048272
526,7.38485877
527,7.404567956
528,7.391801313
529,7.376842812
530,7.371816202
531,7.375780153
532,7.387997737
533,7.394666944
534,7.413275619
535,7.427777898
536,7.440159044
537,7.452355908
538,7.43490791
539,7.418055988
540,7.413923893
541,7.421613324
542,7.440473419
543,7.456831266
544,7.456987059
545,7.471569027
546,7.484445244
547,7.497557938
548,7.512843963
549,7.482795473
550,7.453112958
551,7.451411987
552,7.458843822
553,7.493009266
554,7.525044812
555,7.526092329
556,7.513768759
557,7.518702331
558,7.524804149
559,7.53410251
560,7.548663361
561,7.539241282
562,7.505018661
563,7.47360569
564,7.472660972
565,7.483421832
566,7.523618172
567,7.564558611
568,7.577600183
569,7.580618021
570,7.573181803
571,7.554646044
572,7.555509877
573,7.559598343
574,7.568896704
575,7.585470908
576,7.580118568
577,7.552108135
578,7.529178899
579,7.507801814
580,7.515888298
581,7.55305106
582,7.590604102
583,7.631301887
584,7.646630545
585,7.65463734
586,7.655107109
587,7.647652562
588,7.63171428
589,7.606560713
590,7.602647962
591,7.603801068
592,7.612048325
593,7.629541747
594,7.627208042
595,7.622578087
596,7.596873069
597,7.577918343
598,7.562313959
599,7.546783687
600,7.577614328
601,7.608002693
602,7.640708625
603,7.678615687
604,7.693382136
605,7.703270398
606,7.708323504
607,7.70845539
608,7.703450894
609,7.692965759
610,7.676526629
611,7.653531051
612,7.623247478
613,7.616175042
614,7.616224848
615,7.625554287
616,7.646487503
617,7.650166365
618,7.654379943
619,7.658740946
620,7.66277602
621,7.665925744
622,7.667544635
623,7.666901143
624,7.663177655
625,7.637380197
626,7.617161995
627,7.598994003
628,7.610873703
629,7.652585935
630,7.695702891
631,7.743323296
632,7.767363602
633,7.786387459
634,7.800782157
635,7.810848923
636,7.816802918
637,7.818773239
638,7.816802918
639,7.810848923
640,7.800782157
641,7.786387459
642,7.767363602
643,7.743323296
644,7.713793186
645,7.678213853
646,7.635939811
647,7.617599291
648,7.607275527
649,7.607341071
650,7.62037826
651,7.617830191
652,7.617830191
653,7.62037826
654,7.625431367
655,7.632903445
656,7.642665399
657,7.654545099
658,7.668327384
659,7.683754061
660,7.700523902
661,7.71829265
662,7.736673015
663,7.755234673
664,7.773504269
665,7.790965417
666,7.807058695
667,7.821181652
668,7.832688805
669,7.840891635
670,7.845058595
671,7.844415103
672,7.838143545
673,7.825383277
674,7.80523062
675,7.776738863
676,7.770278043
677,7.769716233
678,7.777253856
679,7.795344151
680,7.795344151
681,7.795344151
682,7.795344151
683,7.795344151
684,7.795344151
685,7.795344151
686,7.795344151
687,7.795344151
688,7.795344151
689,7.795344151
690,7.795344151
691,7.795344151
692,7.795344151
693,7.795344151
694,7.795344151
695,7.795344151
696,7.795344151
697,7.795344151
698,7.795344151
699,7.795344151
700,7.795344151
701,7.795344151
702,7.795344151
703,7.795344151
704,7.795344151
705,7.795344151
706,7.795344151
707,7.795344151
708,7.795344151
709,7.795344151
710,7.795344151
711,7.795344151
712,7.795344151
713,7.795344151
714,7.795344151
715,7.795344151
716,7.795344151
717,7.795344151
718,7.795344151
719,7.795344151
720,7.795344151
721,7.795344151
722,7.795344151
723,7.795344151
724,7.795344151
725,7.795344151
726,7.795344151
727,7.813434446
728,7.820972069
729,7.820410259
730,7.813949439
731,7.785457682
732,7.765305025
733,7.752544757
734,7.746273199
735,7.745629707
736,7.749796667
737,7.757999497
738,7.76950665
739,7.783629607
740,7.799722885
741,7.817184033
742,7.835453629
743,7.854015287
744,7.872395652
745,7.8901644
746,7.906934242
747,7.922360918
748,7.936143203
749,7.948022903
750,7.957784857
751,7.965256936
752,7.970310042
753,7.972858111
754,7.972858111
755,7.970310042
756,7.965256936
757,7.957784857
758,7.948022903
759,7.936143203
760,7.922360918
761,7.906934242
762,7.8901644
763,7.872395652
764,7.854015287
765,7.835453629
766,7.835274328
767,7.825350804
768,7.808695715
769,7.788111938
770,7.748113029
771,7.719757541
772,7.702830313
773,7.697202248
774,7.702830313
775,7.719757541
776,7.748113029
777,7.788111938
778,7.808695715
779,7.825350804
780,7.835274328
781,7.835453629
782,7.854015287
783,7.872395652
784,7.8901644
785,7.906934242
786,7.922360918
787,7.936143203
788,7.948022903
789,7.957784857
790,7.965256936
791,7.970310042
792,7.972858111
793,7.972858111
794,7.988400337
795,7.990884854
796,7.982850965
797,7.966628191
798,7.926256734
799,7.892321792
800,7.864134847
801,7.841093448
802,7.822681208
803,7.808467803
804,7.798108975
805,7.791346531
806,7.788008341
807,7.788008341
808,7.791346531
809,7.798108975
810,7.808467803
811,7.822681208
812,7.841093448
813,7.864134847
814,7.892321792
815,7.926256734
816,7.966628191
817,7.982850965
818,7.990884854
819,8.006490632
820,7.998486029
821,7.997924219
822,7.98891533
823,7.955370467
824,7.927745731
825,7.905223509
826,7.887072251
827,7.872646474
828,7.861386758
829,7.852819747
830,7.84655815
831,7.842300743
832,7.839832363
833,7.839023914
834,7.839832363
835,7.842300743
836,7.84655815
837,7.852819747
838,7.861386758
839,7.872646474
840,7.887072251
841,7.905223509
842,7.927745731
843,7.973460762
844,8.014543248
845,8.022990327
846,8.017091317
847,7.978513868
848,7.93521781
849,7.914985463
850,7.898951952
851,7.886428759
852,7.876813434
853,7.869589588
854,7.864326899
855,7.860681108
856,7.858394021
857,7.857293511
858,7.857293511
859,7.858394021
860,7.860681108
861,7.864326899
862,7.869589588
863,7.876813434
864,7.886428759
865,7.898951952
866,7.914985463
867,7.93521781
868,7.978513868
869,8.017091317
870,8.022990327
871,8.014543248
872,7.973460762
873,7.927745731
874,7.905223509
875,7.887072251
876,7.872646474
877,7.861386758
878,7.852819747
879,7.84655815
880,7.842300743
881,7.839832363
882,7.839023914
883,7.839832363
884,7.842300743
885,7.84655815
886,7.852819747
887,7.861386758
888,7.872646474
889,7.887072251
890,7.905223509
891,7.927745731
892,7.955370467
893,7.98891533
894,7.997924219
895,7.998486029
896,7.988400337
897,7.965256936
898,7.975875152
899,7.973650822
900,7.961209311
901,7.940966206
902,7.897047773
903,7.860125274
904,7.829596257
905,7.804944335
906,7.785739185
907,7.771636549
908,7.762378232
909,7.757792106
910,7.757792106
911,7.762378232
912,7.771636549
913,7.785739185
914,7.804944335
915,7.829596257
916,7.860125274
917,7.897047773
918,7.940966206
919,7.961209311
920,7.973650822
921,7.975875152
922,7.965256936
923,7.970310042
924,7.972858111
925,7.972858111
926,7.970310042
927,7.965256936
928,7.957784857
929,7.948022903
930,7.936143203
931,7.922360918
932,7.906934242
933,7.8901644
934,7.872395652
935,7.854015287
936,7.835453629
937,7.817184033
938,7.799722885
939,7.783629607
940,7.76950665
941,7.757999497
942,7.749796667
943,7.745629707
944,7.746273199
945,7.752544757
946,7.765305025
947,7.785457682
948,7.813949439
949,7.820410259
950,7.820972069
951,7.813434446
952,7.795344151
953,7.795344151
954,7.795344151
955,7.795344151
956,7.795344151
957,7.795344151
958,7.795344151
959,7.777253856
960,7.769716233
961,7.770278043
962,7.776738863
963,7.80523062
964,7.825383277
965,7.838143545
966,7.844415103
967,7.845058595
968,7.840891635
969,7.832688805
970,7.821181652
971,7.807058695
972,7.790965417
973,7.773504269
974,7.755234673
975,7.736673015
976,7.700202355
977,7.674895984
978,7.658687953
979,7.649722096
980,7.664431568
981,7.672704525
982,7.675702839
983,7.674502318
984,7.670092704
985,7.663377675
986,7.655174845
987,7.628125467
988,7.611517992
989,7.603458603
990,7.602220229
991,7.62432209
992,7.639695374
993,7.649501954
994,7.654774605
995,7.638326708
996,7.629575814
997,7.626714167
998,7.628057731
999,7.650125723
1000,7.662806302
1001,7.667175274
1002,7.646046023
1003,7.628793065
1004,7.61352258
1005,7.598421435
1006,7.599836719
1007,7.587441428
1008,7.543962881
1009,7.498646496
1010,7.480786105
1011,7.473254259
1012,7.495416086
1013,7.502125138
1014,7.495016643
1015,7.491147722
1016,7.489522854
1017,7.489173416
1018,7.489146919
1019,7.488496255
1020,7.486268936
1021,7.481496337
1022,7.473182937
1023,7.460295564
1024,7.441752633
1025,7.41641339
1026,7.383067153
1027,7.371782334
1028,7.347986675
1029,7.360204657
1030,7.37931418
1031,7.358274978
1032,7.361501403
1033,7.357375085
1034,7.32741266
1035,7.317809089
1036,7.296773871
1037,7.245608482
1038,7.241609468
1039,7.219495654
1040,7.210233751
1041,7.231849108
1042,7.206501099
1043,7.1990344
1044,7.16004157
1045,7.117944638
1046,7.101154874
1047,7.091592343
1048,7.089498702
1049,7.095336151
1050,7.078416892
1051,7.054711083
1052,7.022001764
1053,7.009313415
1054,6.999071731
1055,6.991916418
1056,6.988600143
1057,6.940527699
1058,6.910477815
1059,6.878374534
1060,6.873629627
1061,6.865942586
1062,6.838287768
1063,6.807097926
1064,6.770688627
1065,6.740596508
1066,6.715293125
1067,6.693432922
1068,6.673831716
1069,6.655445175
1070,6.63734731
1071,6.600618655
1072,6.591238613
1073,6.577410905
1074,6.558720548
1075,6.534752561
1076,6.486980148
1077,6.443566747
1078,6.401515038
1079,6.389354234
1080,6.357929309
1081,6.323021757
1082,6.313763241
1083,6.281515124
1084,6.242489223
1085,6.226161459
1086,6.184151388
1087,6.114752662
1088,6.076170232
1089,6.017570418
1090,5.984410455
1091,5.957662901
1092,5.905337433
1093,5.873536773
1094,5.794321306
1095,5.760683007
1096,5.705026522
1097,5.656052791
1098,5.611447236
1099,5.569196504
1100,5.527545434
1101,5.484954029
1102,5.44005442
1103,5.37351754
1104,5.312833648
1105,5.254439831
1106,5.195025989
1107,5.131481048
1108,5.092198946
1109,5.009756057
1110,4.959693769
1111,4.890542877
1112,4.815862136
1113,4.744529348
1114,4.654412169
1115,4.588486905
1116,4.525390416
1117,4.462269423
1118,4.396625662
1119,4.308161043
1120,4.223536656
1121,4.13847876
1122,4.06233273
1123,3.991723123
1124,3.89238807
1125,3.790192166
1126,3.679952214
1127,3.569980416
1128,3.487093458
1129,3.398707731
1130,3.30385222
1131,3.201733416
1132,3.073569719
1133,2.947339686
1134,2.819877256
1135,2.688145465
1136,2.549150382
1137,2.399855044
1138,2.268453167
1139,2.136464378
1140,2.00348246
1141,1.869009751
1142,1.732381843
1143,1.592692267
1144,1.448717193
1145,1.3301999
1146,1.188596981
1147,1.07101584
1148,0.959406823
1149,0.853412524
1150,0.752212938
1151,0.654460915
1152,0.558217612
1153,0.460887943
1154,0.39051581
1155,0.327900845
1156,0.271368174
1157,0.218624337
1158,0.166703493
1159,0.11191363
1160,0.081142556
1161,0.053985398
1162,0.027525124
1163,-0.001800782
1164,-0.006883572
1165,-0.007804981
1166,-0.007045939
1167,-0.007609144
1168,-0.013051334
1169,-0.027515561
1170,-0.024403689
1171,-0.024227377
1172,-0.029806034
1173,-0.013018861
1174,-0.024004844
1175,-0.017171476
1176,-0.014268952
1177,-0.01115441
1178,-0.007965581
1179,-0.004824794
1180,-0.001838987
1181,0.000900301
1182,0.003316926
1183,0.00535014
1184,0.006954589
1185,0.008100318
1186,0.008772766
1187,0.008972768
1188,0.008716556
1189,0.008035757
1190,0.006977393
1191,0.005603884
1192,0.003993044
1193,0.002238085
1194,0.000447612
1195,-0.001254372
1196,-0.002728469
1197,-0.003819884
1198,-0.004358427
1199,-0.004158512
1200,-0.003019157
